                                                                                
BANK 1 2431 487 CONST  602.500    5.000 0 0 ESD                                 
  676.31   27.70  711.49   28.41  664.96   27.47  666.10   27.49  685.39   27.89
  657.02   27.30  658.16   27.33  695.60   28.10  711.49   28.41  728.51   28.75
  684.26   27.87  681.99   27.82  654.75   27.26  683.12   27.84  620.71   26.54
  655.89   27.28  662.70   27.42  696.74   28.12  602.55   26.15  666.10   27.49
  666.10   27.49  674.04   27.66  650.21   27.16  610.50   26.32  627.52   26.68
  618.44   26.49  647.94   27.12  587.80   25.83  622.98   26.59  613.90   26.39
  653.62   27.23  632.06   26.78  624.11   26.61  664.96   27.47  641.13   26.97
  674.04   27.66  645.67   27.07  649.08   27.14  591.21   25.90  587.80   25.83
  634.33   26.83  615.04   26.42  617.30   26.47  605.96   26.22  652.48   27.21
  622.98   26.59  560.57   25.22  602.55   26.15  632.06   26.78  620.71   26.54
  595.74   26.00  596.88   26.03  613.82   18.63  665.82   19.40  640.38   19.03
  633.60   18.92  618.91   18.70  637.56   18.98  643.21   19.07  613.82   18.63
  627.38   18.83  632.47   18.91  670.91   19.47  621.17   18.74  617.78   18.69
  633.04   18.92  630.21   18.87  608.73   18.55  616.08   18.66  636.43   18.97
  600.25   18.42  620.04   18.72  621.73   18.75  613.82   18.63  586.69   18.21
  669.78   19.46  658.47   19.29  595.17   18.34  625.69   18.81  588.95   18.25
  614.95   18.64  631.34   18.89  613.82   18.63  591.78   18.29  617.21   18.68
  599.12   18.40  609.30   18.56  599.12   18.40  627.38   18.83  618.91   18.70
  619.47   18.71  599.12   18.40  612.69   18.61  607.04   18.52  601.38   18.44
  614.95   18.64  616.65   18.67  617.78   18.69  621.17   18.74  618.91   18.70
  649.43   19.16  638.69   19.00  596.30   18.36  608.17   18.54  593.47   18.31
  609.82   15.08  605.72   15.03  622.87   15.24  632.93   15.36  604.60   15.01
  613.55   15.12  650.45   15.57  642.25   15.47  605.05   18.33  587.84   18.06
  597.28   18.21  641.69   18.87  642.80   18.89  610.05   18.40  623.37   18.60
  608.38   18.38  652.23   19.03  580.63   17.95  575.63   17.88  645.02   18.92
  591.73   18.12  629.48   18.69  617.26   18.51  570.08   17.79  597.28   18.21
  613.38   18.45  618.37   18.53  634.47   18.77  607.27   18.36  622.26   18.59
  622.26   18.59  588.40   18.07  592.28   18.13  618.37   18.53  605.61   18.33
  592.84   18.14  578.41   17.92  613.38   18.45  603.39   18.30  625.03   18.63
  619.48   18.54  608.94   18.39  582.85   17.99  573.97   17.85  631.14   18.72
  587.84   18.06  621.70   18.58  620.59   18.56  620.59   18.56  594.50   18.17
  582.85   17.99  606.72   18.35  586.18   18.04  634.47   18.77  567.86   17.75
  619.87   15.17  589.79   14.80  628.04   15.27  630.64   15.30  632.13   15.32
  633.42   18.74  625.10   18.61  632.31   18.72  616.24   18.48  655.58   19.06
  610.70   18.40  637.85   18.80  631.20   18.70  628.43   18.66  620.12   18.54
  602.94   18.28  617.90   18.50  640.07   18.83  639.51   18.83  643.95   18.89
  631.75   18.71  633.42   18.74  633.42   18.74  625.10   18.61  611.25   18.40
  589.08   18.07  589.64   18.08  626.21   18.63  604.05   18.30  615.68   18.47
  603.49   18.29  630.09   18.69  607.37   18.35  619.56   18.53  632.31   18.72
  608.48   18.36  609.03   18.37  607.37   18.35  620.12   18.54  619.01   18.52
  626.77   18.64  622.89   18.58  583.54   17.98  597.95   18.20  606.82   18.34
  633.97   18.74  618.45   18.51  631.75   18.71  575.78   17.86  617.90   18.50
  600.17   18.24  606.82   18.34  610.70   18.40  612.91   18.43  587.42   18.04
  619.17   15.13  629.15   15.25  612.51   15.05  641.27   18.92  647.41   19.01
  618.39   18.58  674.76   19.41  613.92   18.51  676.43   19.43  625.09   18.68
  613.37   18.50  685.36   19.56  657.46   19.16  665.27   19.27  681.46   19.50
  616.16   18.54  651.88   19.07  636.81   18.85  697.08   19.72  693.74   19.68
  745.08   20.39  701.55   19.79  809.26   21.25  785.82   20.94  839.96   21.65
  858.38   21.89  963.86   23.19 1022.46   23.89 1127.95   25.09 1276.96   26.70
 1398.07   27.93 1595.09   29.84 1784.29   31.56 2197.85   35.02 2695.13   38.78
 3191.85   42.21 3639.46   45.07 3840.94   46.30 4093.20   47.80 3909.59   46.71
 3461.98   43.96 2771.03   39.33 2156.55   34.69 1519.74   29.12 1122.37   25.03
  910.84   22.55  772.43   20.76  731.13   20.20  680.34   19.49  692.62   19.66
  651.32   19.07  669.74   19.33  668.62   19.32  640.71   18.91  679.97   16.19
  676.50   16.15  669.95   16.07  671.87   16.10  732.19   20.74  704.57   20.35
  716.32   20.52  709.27   20.42  715.73   20.51  710.45   20.43  782.14   21.44
  787.42   21.51  853.83   22.40  832.08   22.11  893.79   22.92  990.74   24.13
 1115.91   25.61 1241.08   27.01 1418.54   28.87 1643.01   31.07 1973.85   34.06
 2378.14   37.38 2869.99   41.07 3283.09   43.92 3786.69   47.17 4035.85   48.70
 4047.01   48.77 3783.16   47.15 3222.57   43.52 2547.38   38.69 1943.29   33.79
 1447.33   29.16 1076.54   25.15  932.57   23.41  793.89   21.60  735.13   20.78
  731.01   20.73  693.99   20.19  667.55   19.81  667.55   19.81  665.79   19.78
  672.84   19.88  648.74   19.52  674.01   19.90  662.26   19.73  599.97   18.78
  666.96   19.80  617.60   19.05  629.94   19.24  615.84   19.02  635.23   19.32
  647.57   19.51  611.14   18.95  627.99   15.78  628.78   15.79  606.57   15.51
  643.46   15.98  652.19   16.09  612.52   15.59  645.68   19.96  670.37   20.34
  673.46   20.39  634.57   19.79  636.42   19.82  639.51   19.87  678.40   20.46
  654.94   20.11  615.43   19.49  694.44   20.70  677.16   20.45  733.95   21.29
  722.84   21.12  704.94   20.86  802.47   22.26  853.09   22.95  920.37   23.84
 1039.51   25.33 1100.62   26.07 1250.62   27.78 1391.98   29.31 1424.07   29.65
 1411.73   29.52 1396.30   29.36 1231.48   27.57 1065.43   25.65  975.31   24.54
  843.83   22.82  739.51   21.37  696.30   20.73  651.85   20.06  648.77   20.01
  601.23   19.26  635.19   19.80  625.31   19.65  604.32   19.31  594.44   19.16
  592.59   19.13  636.42   19.82  610.49   19.41  607.41   19.36  608.02   19.37
  621.60   19.59  593.21   19.14  624.69   19.64  625.31   19.65  611.73   19.43
  622.84   19.61  610.76   16.08  612.88   16.11  623.46   16.25  606.10   16.02
  633.21   16.38  616.69   16.16  657.05   20.52  608.33   19.75  648.08   20.38
  603.21   19.66  631.41   20.12  612.82   19.82  632.05   20.13  576.92   19.23
  596.15   19.55  613.46   19.83  592.95   19.50  574.36   19.19  582.05   19.32
  598.72   19.59  592.95   19.50  575.00   19.20  581.41   19.31  570.51   19.12
  627.56   20.06  624.36   20.01  584.62   19.36  610.90   19.79  573.08   19.17
  562.82   18.99  607.05   19.73  600.00   19.61  602.56   19.65  588.46   19.42
  585.26   19.37  599.36   19.60  586.54   19.39  587.18   19.40  571.79   19.15
  566.03   19.05  568.59   19.09  575.00   19.20  606.41   19.72  614.10   19.84
  621.79   19.96  639.74   20.25  584.62   19.36  607.05   19.73  612.18   19.81
  566.67   19.06  562.82   18.99  577.56   19.24  576.92   19.23  592.95   19.50
  550.00   18.78  572.78   15.37  582.28   15.50  594.24   15.66  581.04   15.48
  590.93   19.19  577.84   18.98  584.07   19.08  576.59   18.96  593.42   19.23
  618.36   19.63  575.97   18.95  566.00   18.78  567.87   18.81  616.49   19.60
  585.32   19.10  625.21   19.74  590.31   19.18  587.81   19.14  568.49   18.82
  582.20   19.05  587.19   19.13  573.48   18.91  534.21   18.25  638.30   19.95
  580.33   19.02  613.99   19.56  570.98   18.87  613.37   19.55  607.76   19.46
  561.01   18.70  596.54   19.28  572.23   18.89  590.31   19.18  587.81   19.14
  560.39   18.69  551.04   18.53  595.92   19.27  565.37   18.77  571.61   18.88
  574.72   18.93  618.36   19.63  535.45   18.27  579.09   19.00  592.18   19.21
  623.34   19.71  562.26   18.72  576.59   18.96  577.22   18.97  537.32   18.30
  562.88   18.73  586.57   19.12  591.55   19.20  577.84   18.98  591.92   15.49
  623.52   15.89  602.05   15.62  571.66   15.22  621.49   15.87  614.85   18.87
  591.11   18.50  586.48   18.43  645.53   19.33  620.06   18.95  596.90   18.59
  618.32   18.92  612.53   18.83  628.75   19.08  582.43   18.36  570.27   18.17
  575.48   18.25  591.69   18.51  583.01   18.37  608.48   18.77  605.59   18.72
  579.53   18.32  595.17   18.56  594.01   18.54  550.59   17.85  581.27   18.34
  551.74   17.87  583.01   18.37  600.38   18.64  581.85   18.35  596.32   18.58
  599.22   18.63  609.06   18.78  590.53   18.49  630.48   19.11  680.85   19.85
  629.32   19.09  695.90   20.07  721.96   20.44  760.17   20.98  800.12   21.52
  897.96   22.80  951.22   23.47 1025.33   24.36  991.75   23.96  940.80   23.34
  918.22   23.06  839.48   22.05  786.22   21.34  730.64   20.57  664.06   19.61
  644.38   19.31  583.59   18.38  615.43   18.88  620.64   18.96  614.18   15.48
  602.48   15.33  611.06   15.44  592.33   15.20  596.62   15.26  614.89   19.02
  612.53   18.98  631.95   19.28  616.06   19.04  629.60   19.25  620.18   19.10
  628.42   19.23  606.65   18.89  578.41   18.45  624.89   19.18  589.00   18.62
  590.17   18.63  578.41   18.45  642.54   19.44  584.29   18.54  597.23   18.75
  641.37   19.43  647.25   19.52  592.53   18.67  582.52   18.51  599.59   18.78
  630.19   19.26  626.07   19.19  603.71   18.85  589.59   18.63  644.31   19.47
  626.65   19.20  607.83   18.91  601.94   18.82  649.60   19.55  603.12   18.84
  624.89   19.18  659.02   19.69  629.60   19.25  690.79   20.16  684.32   20.07
  656.66   19.66  651.37   19.58  640.19   19.41  614.89   19.02  637.25   19.36
  672.55   19.89  589.00   18.62  647.25   19.52  643.72   19.46  620.18   19.10
  617.83   19.07  632.54   19.29  615.38   15.46  599.46   15.26  621.99   15.54
  627.43   15.61  627.04   15.61  617.54   19.00  629.82   19.19  601.17   18.75
  630.41   19.20  642.11   19.38  621.64   19.07  606.43   18.83  642.11   19.38
  611.11   18.90  639.18   19.33  645.61   19.43  676.02   19.88  659.06   19.63
  663.74   19.70  622.22   19.08  631.58   19.22  655.56   19.58  622.22   19.08
  633.33   19.25  605.26   18.81  599.42   18.72  621.05   19.06  674.85   19.87
  620.47   19.05  632.75   19.24  652.63   19.54  653.22   19.54  645.03   19.42
  628.07   19.16  630.41   19.20  691.23   20.11  677.78   19.91  704.09   20.29
  712.28   20.41  758.48   21.06  773.10   21.26  858.48   22.41  892.40   22.84
  923.98   23.25  975.44   23.88  971.35   23.83  933.33   23.36  925.15   23.26
  919.88   23.19  940.94   23.46  968.42   23.80 1121.05   25.60 1198.25   26.47
 1342.11   28.02 1476.40   24.02 1703.51   25.80 1687.09   25.68 1630.80   25.25
 1529.95   24.45 1324.73   22.76 1249.17   26.93 1062.84   24.84  947.90   23.46
  848.06   22.19  820.78   21.83  824.84   21.88  794.08   21.47  853.29   22.26
  840.52   22.09  854.45   22.27  832.97   21.99  903.79   22.90  900.30   22.86
  984.47   23.91 1011.17   24.23 1120.88   25.51 1123.78   25.54 1202.15   26.42
 1295.02   27.42 1576.55   30.25 1812.22   32.43 2136.12   35.21 2639.97   39.15
 3272.67   43.59 4337.83   50.18 5769.26   57.87 7755.62   67.1010006.09   76.21
12473.08   85.0914951.68   93.1616319.84   97.3316166.01   96.8714898.85   93.00
12316.35   84.55 9439.56   74.02 6827.46   62.95 4863.15   53.13 3313.31   43.86
 2504.72   38.13 2035.12   34.37 1708.32   31.49 1512.70   29.63 1436.08   28.87
 1384.99   28.35 1325.21   27.74 1336.82   27.86 1486.58   29.38 1584.39   25.58
 1740.06   26.81 2006.40   28.78 2321.87   30.96 2596.88   32.75 2706.72   33.43
 2759.74   42.23 2558.73   40.67 2157.38   37.34 1846.50   34.55 1479.40   30.92
 1200.19   27.85 1017.94   25.65  922.93   24.42  905.48   24.19  833.74   23.21
  783.97   22.51  749.07   22.00  716.76   21.52  763.94   22.22  748.42   21.99
  711.59   21.45  694.13   21.18  700.60   21.28  720.63   21.58  700.60   21.28
  733.56   21.77  752.95   22.06  779.45   22.44  831.15   23.18  824.69   23.09
  818.23   23.00  763.29   22.21  741.32   21.89  727.74   21.69  734.85   21.79
  716.11   21.51  698.01   21.24  691.55   21.14  664.40   20.72  637.26   20.29
  676.04   20.90  610.76   19.87  638.55   20.32  644.37   20.41  646.95   20.45
  623.69   20.08  639.20   20.33  632.74   20.22  632.09   20.21  630.80   20.19
  621.75   20.05  635.32   20.26  616.58   19.96  603.65   19.75  650.32   16.51
  642.36   16.41  636.92   16.34  613.87   16.04  616.80   16.08  632.54   20.28
  664.39   20.78  607.18   19.87  607.18   19.87  607.83   19.88  596.78   19.70
  642.29   20.43  587.68   19.55  631.89   20.27  623.44   20.13  620.19   20.08
  605.88   19.85  607.18   19.87  631.89   20.27  640.99   20.41  637.09   20.35
  640.34   20.40  629.94   20.24  626.04   20.17  626.69   20.18  591.58   19.61
  640.34   20.40  603.28   19.80  607.18   19.87  603.28   19.80  574.68   19.33
  600.68   19.76  642.94   20.44  588.98   19.57  598.08   19.72  622.14   20.11
  625.39   20.16  569.48   19.24  648.14   20.53  603.28   19.80  598.08   19.72
  603.28   19.80  623.44   20.13  595.48   19.68  612.38   19.95  552.58   18.95
  557.78   19.04  596.78   19.70  592.23   19.62  616.28   20.02  627.99   20.21
  582.48   19.46  599.38   19.74  645.54   20.49  606.64   16.10  598.10   15.98
  613.91   16.19  608.35   16.12  643.22   19.79  621.90   19.46  611.54   19.30
  594.49   19.03  636.52   19.69  606.06   19.21  615.81   19.37  594.49   19.03
  613.37   19.33  607.89   19.24  613.98   19.34  607.89   19.24  612.76   19.32
  601.80   19.15  631.03   19.61  584.74   18.87  603.02   19.17  639.56   19.74
  625.55   19.52  620.68   19.44  610.32   19.28  642.61   19.78  617.02   19.39
  601.80   19.15  651.74   19.92  649.92   19.90  664.53   20.12  676.72   20.30
  650.53   19.91  674.89   20.28  654.79   19.97  698.04   20.62  709.00   20.78
  746.76   21.33  777.22   21.76  847.27   22.72  965.43   24.25 1056.80   25.37
 1296.79   28.10 1393.63   29.14 1547.74   30.70 1547.13   30.70 1502.06   30.25
 1388.76   29.08 1223.69   27.30 1060.45   25.42 1003.20   24.72  838.13   22.59
  774.17   21.72  730.32   21.09  777.28   17.63  703.67   16.78  728.07   17.07
  714.07   16.90  745.67   17.27  714.24   20.74  752.18   21.28  784.70   21.74
  831.68   22.38  834.69   22.42  924.42   23.59 1047.27   25.11 1217.10   27.07
 1454.98   29.60 1805.48   32.97 2249.92   36.81 2585.97   39.46 2885.28   41.68
 3049.68   42.86 2984.64   42.40 2604.03   39.60 2186.69   36.29 1832.58   33.22
 1462.81   29.68 1205.66   26.95 1011.74   24.68  858.18   22.73  764.23   21.45
  750.38   21.26  706.41   20.63  651.01   19.80  676.90   20.19  673.89   20.15
  664.26   20.00  629.33   19.47  655.83   19.87  661.25   19.96  623.91   19.38
  667.87   20.06  676.90   20.19  629.33   19.47  606.44   19.11  615.48   19.25
  655.83   19.87  637.76   19.60  626.92   19.43  626.32   19.42  677.51   20.20
  605.24   19.09  607.05   19.12  631.14   19.50  641.37   19.65  627.52   19.44
  665.46   20.02  660.11   16.45  697.42   16.91  657.24   16.42  659.70   16.45
  701.11   16.95  702.72   20.72  715.55   20.91  752.83   21.45  791.93   22.00
  754.66   21.47  811.49   22.27  796.21   22.06  834.10   22.58  930.03   23.84
  915.37   23.65  997.86   24.69 1099.30   25.92 1172.01   26.76 1308.28   28.27
 1410.94   29.36 1732.36   32.54 2089.83   35.74 2494.35   39.04 3113.96   43.62
 3820.35   48.32 4399.63   51.85 4848.15   54.43 5065.08   55.63 4868.93   54.55
 4301.25   51.27 3667.58   47.34 2737.55   40.90 2188.82   36.57 1789.18   33.07
 1459.21   29.86 1233.73   27.46 1106.02   26.00  921.48   23.73  862.82   22.96
  780.93   21.84  834.10   22.58  768.71   21.67  734.49   21.19  725.94   21.06
  722.88   21.02  688.05   20.50  716.77   20.93  688.05   20.50  685.00   20.46
  664.83   20.16  663.00   20.13  662.39   20.12  673.39   20.28  645.89   19.87
  664.82   16.52  695.19   16.89  664.41   16.51  690.67   16.84  718.58   17.17
  710.06   21.21  758.19   21.91  765.16   22.02  821.54   22.81  885.51   23.68
  971.65   24.81 1085.67   26.22 1243.39   28.06 1430.25   30.10 1729.85   33.10
 1968.65   35.31 2179.57   37.16 2235.31   37.63 2171.97   37.09 1980.68   35.42
 1664.61   32.47 1442.28   30.23 1202.22   27.60 1035.00   25.60  914.01   24.06
  846.24   23.15  787.33   22.33  715.76   21.29  708.79   21.19  679.02   20.74
  699.29   21.05  694.22   20.97  649.88   20.29  640.38   20.14  647.98   20.26
  694.85   20.98  702.45   21.09  698.65   21.04  755.66   21.88  738.56   21.63
  824.07   22.85  794.93   22.44  756.93   21.90  849.41   23.20  796.20   22.46
  743.63   21.70  710.69   21.22  656.85   20.40  677.75   20.72  670.78   20.61
  632.15   20.01  668.88   20.58  630.25   19.98  605.54   19.58  653.92   16.81
  619.77   16.37  622.80   16.41  612.43   16.27  618.48   16.35  646.80   20.53
  669.60   20.88  618.14   20.07  647.45   20.54  610.32   19.94  644.85   20.49
  619.44   20.09  628.56   20.23  652.66   20.62  581.66   19.46  612.28   19.97
  605.11   19.85  612.93   19.98  622.05   20.13  606.42   19.87  583.62   19.50
  622.70   20.14  592.74   19.65  616.19   20.03  625.96   20.19  592.09   19.64
  614.88   20.01  609.02   19.92  595.99   19.70  569.29   19.26  616.84   20.04
  599.25   19.76  644.19   20.48  600.55   19.78  598.60   19.75  614.88   20.01
  638.33   20.39  641.59   20.44  670.25   20.89  685.23   21.13  774.47   22.46
  784.89   22.61  842.21   23.42  856.54   23.62  874.78   23.87  861.75   23.69
  848.72   23.51  832.44   23.29  765.35   22.33  745.16   22.03  687.18   21.16
  696.95   21.31  628.56   20.23  657.22   20.69  635.73   16.47  622.51   16.30
  610.99   16.15  642.99   16.56  624.21   16.32  627.15   20.16  668.61   20.81
  639.46   20.35  675.74   20.92  637.51   20.32  645.93   20.46  635.57   20.29
  641.40   20.39  653.06   20.57  623.26   20.09  628.44   20.18  656.95   20.63
  644.64   20.44  649.17   20.51  638.81   20.34  653.06   20.57  662.13   20.71
  708.78   21.43  720.44   21.60  739.88   21.89  763.20   22.24  853.90   23.52
  875.93   23.82  921.28   24.43 1084.55   26.51 1133.79   27.10 1287.33   28.88
 1425.98   30.40 1462.26   30.78 1411.08   30.24 1306.12   29.09 1267.90   28.66
 1137.67   27.15 1087.79   26.55  967.93   25.04  931.00   24.56  881.76   23.90
  875.93   23.82  873.99   23.80  829.28   23.18  872.04   23.77  902.49   24.18
  959.51   24.93  943.31   24.72  997.73   25.42 1133.14   27.09 1243.93   28.39
 1374.15   29.84 1531.58   31.50 1705.83   26.66 1892.08   28.08 2024.17   29.04
 2187.50   30.19 2276.67   30.80 2354.35   37.60 2634.23   39.78 2967.57   42.22
 3499.10   45.84 3975.98   48.87 4303.90   50.84 4553.15   52.29 4433.63   51.60
 4094.89   49.59 3699.70   47.14 3218.62   43.97 2602.40   39.53 2084.08   35.38
 1754.95   32.47 1487.69   29.89 1303.90   27.98 1161.56   26.41 1066.67   25.31
  989.79   24.38  962.16   24.04  833.03   22.37  809.01   22.04  828.23   22.30
  800.00   21.92  761.56   21.39  754.35   21.29  742.94   21.12  713.51   20.70
  729.73   20.94  687.69   20.32  673.87   20.12  688.29   20.33  676.88   20.16
  676.88   20.16  664.26   19.97  704.50   20.57  664.26   19.97  712.31   20.68
  679.28   20.20  710.51   20.66  763.36   21.41  762.16   21.40  791.59   21.80
  845.05   22.53  878.68   22.97  867.87   22.83  815.02   22.12  820.42   22.20
  842.85   18.48  754.15   17.48  732.69   17.23  704.33   16.89  682.87   16.63
  679.63   16.59  693.77   20.44  656.43   19.88  649.80   19.78  704.61   20.60
  652.82   19.83  708.82   20.66  679.92   20.24  649.20   19.77  720.87   20.84
  699.19   20.52  800.96   21.96  794.94   21.88  809.39   22.08  816.02   22.17
  906.96   23.37 1026.80   24.87 1129.18   26.08 1283.95   27.81 1495.33   30.01
 1806.08   32.98 2023.49   34.91 2222.82   36.59 2261.97   36.91 2295.69   37.18
 2144.53   35.94 1904.25   33.86 1549.53   30.55 1497.14   30.03 1250.23   27.44
 1095.45   25.68  923.22   23.58  875.04   22.96  801.57   21.97  737.13   21.07
  761.82   21.42  721.47   20.84  684.73   20.31  723.28   20.87  663.05   19.98
  665.46   20.02  655.22   19.86  626.92   19.43  642.58   19.67  571.51   18.55
  606.44   19.11  646.79   19.74  604.03   19.07  638.96   19.62  644.09   16.19
  651.00   16.28  647.75   16.23  616.82   15.84  624.15   15.94  640.42   16.14
  627.63   19.80  620.77   19.69  655.74   20.24  617.64   19.64  663.23   20.35
  617.02   19.63  632.63   19.88  619.52   19.67  630.13   19.84  619.52   19.67
  642.62   20.03  618.89   19.66  629.51   19.83  592.04   19.23  613.27   19.57
  632.01   19.87  613.27   19.57  632.01   19.87  646.99   20.10  603.90   19.42
  663.86   20.36  609.52   19.51  679.47   20.60  627.63   19.80  633.88   19.90
  631.38   19.86  672.60   20.50  660.11   20.30  668.85   20.44  682.59   20.65
  664.48   20.37  689.46   20.75  723.81   21.26  707.57   21.02  680.72   20.62
  753.79   21.70  724.43   21.27  812.49   22.53  764.40   21.85  830.60   22.78
  855.58   23.12  839.34   22.89  924.28   24.03  982.98   24.78 1052.30   25.64
 1129.12   26.55 1317.10   28.68 1410.15   29.68 1465.18   24.96 1634.88   26.37
 1755.66   27.33 1910.90   28.51 2116.32   30.00 2330.59   38.81 2672.48   41.56
 2901.28   43.30 3071.90   44.56 3134.59   45.01 3035.71   44.29 2801.10   42.55
 2567.78   40.74 2223.30   37.91 1868.48   34.75 1556.31   31.72 1363.06   29.68
 1223.46   28.12 1029.57   25.80  983.03   25.21  887.38   23.95  839.55   23.29
  805.95   22.82  760.06   22.16  700.60   21.28  727.10   21.68  692.20   21.15
  707.71   21.39  666.34   20.75  684.44   21.03  665.05   20.73  690.90   21.13
  683.15   21.01  631.44   20.20  652.77   20.54  654.06   20.56  660.53   20.66
  634.03   20.24  669.58   20.80  644.37   20.41  663.76   20.71  620.46   20.03
  623.69   20.08  626.27   20.12  642.43   20.38  630.15   20.18  670.22   20.81
  668.93   20.79  650.83   20.51  641.78   20.37  687.03   21.07  687.67   21.08
  705.12   21.35  716.11   21.51  709.29   17.84  742.93   18.26  785.55   18.77
  794.98   18.89  869.90   19.76  877.95   24.76  938.71   25.61 1008.56   26.54
 1124.50   28.03 1210.41   29.08 1448.58   31.81 1623.19   33.67 1863.45   36.08
 2239.92   39.55 2374.02   40.72 2462.72   41.47 2529.07   42.03 2367.03   40.66
 2121.18   38.49 2066.00   37.99 1699.32   34.45 1555.44   32.96 1329.14   30.47
 1130.78   28.10 1003.67   26.48  926.84   25.44  886.33   24.88  807.40   23.75
  793.43   23.54  784.35   23.41  770.39   23.20  720.80   22.44  685.18   21.88
  730.57   22.59  726.38   22.52  682.38   21.83  688.67   21.93  668.41   21.61
  688.67   21.93  701.24   22.13  643.27   21.20  676.10   21.73  697.75   22.08
  692.86   22.00  698.45   22.09  701.24   22.13  734.07   22.64  729.88   22.58
  677.49   21.75  739.65   22.73  761.31   23.06  774.58   23.26  759.21   23.03
  764.10   23.10  755.72   22.97  839.05   19.21  846.09   19.29  912.05   20.03
  885.22   19.73  986.22   25.44 1009.19   25.73 1085.96   26.69 1212.60   28.21
 1258.53   28.74 1402.23   30.33 1444.88   30.79 1604.99   32.45 1624.02   32.64
 1553.15   31.92 1537.40   31.76 1492.13   31.29 1406.82   30.38 1311.02   29.33
 1241.47   28.54 1165.35   27.65 1106.30   26.94 1204.72   28.12 1124.67   27.17
 1179.13   27.82 1265.75   28.82 1404.86   30.36 1550.52   31.90 1715.22   33.55
 1870.08   35.03 2242.13   38.36 2557.74   40.97 2900.92   43.63 3324.15   46.70
 3516.40   48.03 3666.01   49.05 3610.24   48.67 3581.36   48.48 3179.79   45.68
 2921.26   43.78 2619.42   41.46 2361.55   39.36 2150.26   37.56 2013.78   36.35
 1833.99   34.69 1755.25   33.94 1847.77   34.82 1811.02   34.47 1737.53   33.77
 1616.80   32.57 1590.55   32.31 1440.29   30.74 1348.43   29.75 1217.19   28.26
 1236.19   23.05 1099.08   21.74 1009.67   20.83  952.93   20.24  891.47   19.57
  882.20   23.16  870.65   23.01  815.32   22.26  831.13   22.48  880.98   23.14
  832.35   22.50  866.39   22.95  898.01   23.37  913.82   23.57  970.36   24.29
  980.70   24.42 1001.98   24.68  986.17   24.49 1067.03   25.47 1036.63   25.11
  997.72   24.63  931.45   23.80  874.30   23.06  822.01   22.36  805.59   22.13
  773.98   21.69  725.95   21.01  694.33   20.55  699.19   20.62  684.60   20.40
  687.64   20.45  662.11   20.06  675.48   20.27  635.35   19.65  619.55   19.41
  677.31   20.29  670.62   20.19  661.50   20.05  651.16   19.90  660.28   20.04
  642.04   19.76  625.63   19.50  645.08   19.80  645.08   19.80  633.53   19.63
  610.43   19.26  663.93   20.09  648.73   19.86  639.00   19.71  641.43   19.75
  637.79   19.69  662.71   20.07  679.74   20.33  675.48   20.27  672.53   16.50
  661.61   16.36  697.62   16.80  715.02   17.01  695.19   16.77  685.08   16.65
  691.84   20.61  670.96   20.29  685.70   20.52  665.44   20.21  694.29   20.64
  669.74   20.28  664.21   20.19  691.84   20.61  682.63   20.47  684.47   20.50
  639.66   19.82  684.47   20.50  735.42   21.25  700.43   20.74  740.33   21.32
  748.93   21.44  739.10   21.30  775.32   21.82  786.37   21.97  809.70   22.29
  820.75   22.45  922.65   23.80  983.43   24.57 1044.20   25.32 1060.77   25.52
 1089.01   25.86 1053.41   25.43 1005.52   24.84  969.31   24.39  936.16   23.97
  938.00   24.00  850.83   22.85  790.06   22.02  762.43   21.63  712.71   20.92
  766.73   21.70  688.15   20.55  725.60   21.11  710.25   20.88  734.81   21.24
  724.98   21.10  752.61   21.49  739.10   21.30  718.85   21.01  712.09   20.91
  697.36   20.69  704.73   20.80  678.94   20.42  664.83   20.20  673.11   16.46
  659.42   16.29  640.90   16.06  643.32   16.09  656.56   19.76  614.33   19.11
  649.42   19.65  642.88   19.55  614.33   19.11  610.76   19.06  650.01   19.66
  578.65   18.55  606.60   18.99  619.09   19.19  615.52   19.13  589.95   18.73
  611.95   19.08  627.42   19.32  630.39   19.36  630.39   19.36  625.04   19.28
  620.87   19.22  603.03   18.94  627.42   19.32  636.34   19.45  605.41   18.97
  650.01   19.66  595.30   18.82  644.07   19.57  601.84   18.92  635.15   19.44
  626.23   19.30  630.39   19.36  647.04   19.62  628.01   19.33  636.34   19.45
  648.83   19.64  649.42   19.65  638.12   19.48  641.69   19.54  655.96   19.75
  658.94   19.80  623.25   19.25  675.59   20.04  692.24   20.29  704.13   20.46
  726.14   20.78  720.79   20.70  758.85   21.24  753.49   21.17  782.04   21.57
  815.94   22.03  802.26   21.84  846.27   22.43  951.57   19.66 1018.17   20.34
 1114.83   21.28 1139.20   21.51 1237.35   27.50 1308.88   28.29 1410.97   29.37
 1527.74   30.56 1625.55   31.52 1742.93   32.64 1739.87   32.61 1753.94   32.75
 1739.26   32.61 1596.21   31.24 1499.01   30.27 1409.14   29.35 1299.10   28.18
 1200.06   27.09 1086.96   25.78  991.59   24.62  982.42   24.51  885.22   23.26
  830.81   22.54  780.07   21.84  736.67   21.22  726.27   21.07  733.00   21.17
  726.88   21.08  722.60   21.02  747.06   21.37  702.43   20.72  707.32   20.79
  690.20   20.54  734.22   21.19  744.00   21.33  737.89   21.24  754.39   21.48
  746.45   21.36  745.84   21.35  783.74   21.89  824.09   22.45  817.36   22.35
  862.60   22.96  903.56   23.50  906.01   23.53  935.96   23.92  923.12   23.76
  843.65   22.71  888.89   23.31  824.09   22.45  821.64   22.41  803.91   22.17
  799.02   22.10  737.41   17.29  739.84   17.32  757.68   17.53  717.95   17.06
  696.46   16.80  722.81   17.12  730.26   21.29  733.98   21.34  774.93   21.93
  786.72   22.09  791.69   22.16  840.70   22.84  872.34   23.26  892.20   23.53
  866.76   23.19  889.10   23.49  930.67   24.03  899.02   23.62  815.26   22.49
  820.85   22.57  786.10   22.08  760.66   21.72  701.10   20.86  709.79   20.99
  750.74   21.58  690.55   20.70  675.66   20.47  615.48   19.54  665.12   20.31
  686.21   20.63  701.10   20.86  628.51   19.75  694.90   20.76  659.53   20.23
  657.05   20.19  635.33   19.85  670.70   20.40  684.97   20.62  703.58   20.89
  688.69   20.67  689.93   20.69  668.22   20.36  705.44   20.92  696.14   20.78
  724.68   21.20  725.92   21.22  783.00   22.04  803.47   22.33  777.42   21.96
  853.73   23.02  856.83   23.06  984.02   24.71  967.89   24.51  987.13   24.75
 1029.61   20.54 1086.59   21.10 1080.44   21.04 1118.15   21.41 1156.27   21.77
 1210.37   22.27 1232.67   27.26 1238.70   27.32 1257.99   27.54 1237.49   27.31
 1213.98   27.05 1198.31   26.88 1125.38   26.05 1057.87   25.25 1025.92   24.87
  940.33   23.81  933.69   23.72  905.97   23.37  882.46   23.06  851.12   22.65
  881.25   23.05  835.44   22.44  836.65   22.46  876.43   22.98  851.12   22.65
  904.16   23.35  869.20   22.89  943.94   23.85  920.43   23.55  888.49   23.14
  878.24   23.01  886.68   23.12  812.54   22.13  825.20   22.30  818.57   22.21
  765.52   21.48  747.44   21.23  784.21   21.74  738.40   21.10  740.20   21.12
  770.95   21.56  748.64   21.24  745.63   21.20  729.96   20.98  767.33   21.51
  737.19   21.08  784.81   21.75  769.74   21.54  804.10   22.02  817.36   22.20
  887.28   23.13  862.57   22.80  924.05   23.60  924.14   19.13  991.88   19.82
 1042.98   20.33 1113.88   21.01 1228.36   22.06 1295.31   22.65 1459.70   29.36
 1544.73   30.20 1747.86   32.13 1839.98   32.96 1872.45   33.25 1967.52   34.09
 2045.47   34.75 2070.86   34.97 2102.16   35.23 2031.30   34.63 1945.67   33.90
 1758.49   32.22 1622.67   30.95 1519.93   29.96 1446.12   29.22 1188.66   26.49
 1172.72   26.32 1046.94   24.86 1019.78   24.54  849.13   22.39  878.65   22.78
  835.55   22.21  826.69   22.09  758.19   21.16  742.84   20.94  707.41   20.44
  739.89   20.90  730.44   20.77  737.53   20.87  700.92   20.34  732.21   20.79
  676.71   19.99  685.56   20.12  689.11   20.17  691.47   20.21  666.67   19.84
  647.18   19.55  696.19   20.28  676.11   19.98  675.52   19.97  649.54   19.58
  627.69   19.25  635.37   19.37  671.98   19.92  627.69   19.25  667.85   19.86
  663.71   19.80  672.57   19.93  629.47   19.28  657.80   16.10  658.59   16.11
  645.97   15.96  683.42   16.41  670.81   16.26  719.61   20.52  655.84   19.59
  664.62   19.72  685.68   20.03  665.79   19.74  669.88   19.80  692.12   20.12
  686.27   20.04  675.15   19.87  676.91   19.90  664.62   19.72  706.16   20.33
  681.00   19.96  661.11   19.67  694.46   20.16  710.84   20.39  720.78   20.54
  713.76   20.43  714.93   20.45  727.80   20.64  746.53   20.90  783.38   21.41
  763.49   21.13  806.79   21.73  844.81   22.23  820.24   21.91  892.79   22.85
  882.84   22.73 1016.82   24.39 1075.91   25.09 1082.35   25.16 1146.70   25.90
 1265.47   27.21 1393.59   28.55 1446.25   29.09 1542.78   30.04 1629.37   30.88
 1699.58   31.53 1768.61   32.17 1818.93   32.62 1792.01   32.38 1768.03   32.16
 1681.44   31.36 1631.71   30.90 1428.70   28.91 1418.75   28.81 1315.78   27.75
 1271.90   27.28 1228.32   22.10 1094.27   20.86 1079.55   20.72 1023.07   20.17
  976.13   19.70  967.55   24.23  931.76   23.77  942.68   23.91  883.83   23.15
  959.66   24.13  911.13   23.51  925.69   23.70  922.66   23.66  912.34   23.53
  915.98   23.57  865.03   22.91  920.84   23.63  829.85   22.44  848.65   22.69
  779.50   21.75  807.40   22.13  794.06   21.95  779.50   21.75  779.50   21.75
  755.23   21.40  718.23   20.87  741.28   21.21  747.95   21.30  706.70   20.70
  723.08   20.94  677.59   20.27  701.85   20.63  721.87   20.93  682.44   20.35
  701.85   20.63  712.77   20.79  710.95   20.77  720.05   20.90  707.92   20.72
  714.59   20.82  727.93   21.01  741.89   21.21  741.28   21.21  748.56   21.31
  755.23   21.40  773.43   21.66  804.37   22.09  767.36   21.58  789.20   21.88
  840.76   22.58  839.55   22.57  934.18   23.81  914.16   23.55  979.07   24.37
  979.07   24.37 1044.54   20.50 1092.41   20.96 1164.40   21.64 1230.37   22.25
 1289.49   22.77 1318.72   28.34 1358.90   28.76 1416.74   29.37 1428.31   29.49
 1368.65   28.87 1335.77   28.52 1350.99   28.68 1322.98   28.38 1184.17   26.85
 1196.35   26.99 1103.81   25.92 1066.67   25.48 1019.18   24.91 1014.31   24.85
  929.68   23.79  936.38   23.88  854.19   22.80  833.49   22.53  786.61   21.88
  836.53   22.57  795.13   22.00  835.92   22.56  800.00   22.07  799.39   22.06
  838.36   22.59  803.65   22.12  821.31   22.36  813.39   22.25  821.92   22.37
  879.15   23.14  871.23   23.03  934.55   23.85  865.14   22.95  906.54   23.49
  979.60   24.42  998.48   24.66 1063.62   25.45 1080.67   25.65 1083.11   25.68
 1120.85   26.12 1103.81   25.92 1178.08   26.78 1180.52   26.81 1194.52   26.97
 1219.48   27.25 1168.95   26.68 1164.08   26.62 1166.51   26.65 1119.63   26.11
 1149.03   21.34 1170.83   21.54 1213.63   21.93 1182.32   21.65 1312.38   27.64
 1291.43   27.42 1327.51   27.80 1369.42   28.23 1411.32   28.66 1454.39   29.09
 1532.37   29.86 1498.04   29.53 1512.59   29.67 1506.18   29.61 1482.90   29.38
 1499.78   29.54 1399.68   28.54 1358.94   28.12 1316.46   27.68 1229.16   26.75
 1156.41   25.94 1087.15   25.15 1027.21   24.45 1027.21   24.45  919.54   23.13
  928.85   23.25  856.10   22.32  819.44   21.84  810.13   21.71  830.50   21.98
  762.99   21.07  799.65   21.57  788.01   21.42  756.00   20.98  698.97   20.17
  764.73   21.10  772.30   21.20  758.33   21.01  742.03   20.78  744.36   20.81
  705.37   20.26  769.97   21.17  743.78   20.81  741.45   20.77  742.62   20.79
  740.29   20.76  746.11   20.84  767.64   21.14  754.26   20.95  787.43   21.41
  805.47   21.65  811.87   21.74  814.78   21.78  799.07   21.56  880.78   18.74
  877.19   18.70  895.53   18.90  913.48   19.08  911.88   19.07  899.87   23.21
  898.07   23.19  912.44   23.37  918.43   23.45  919.62   23.46  938.78   23.71
  986.08   24.30  992.07   24.37  975.30   24.16 1031.58   24.85 1023.20   24.75
 1072.29   25.34 1135.76   26.08 1148.93   26.23 1191.44   26.71 1269.27   27.57
 1272.86   27.61 1355.49   28.49 1480.02   29.77 1578.21   30.74 1678.79   31.70
 1811.11   32.93 1938.63   34.07 2030.23   34.86 2245.77   36.67 2374.49   37.70
 2536.15   38.97 2688.22   40.12 2721.75   40.37 2715.16   40.32 2803.77   40.97
 2682.23   40.07 2672.65   40.00 2545.73   39.04 2412.21   38.00 2350.55   37.51
 2176.32   36.10 2019.46   34.77 1867.39   33.44 1733.87   32.22 1602.75   30.98
 1524.32   30.21 1399.79   28.95 1337.52   28.30 1213.59   26.96 1190.84   26.70
 1144.14   26.17 1037.57   24.92 1005.84   24.54 1003.49   20.30  984.60   20.11
  937.36   19.62  918.46   19.42  878.62   19.00  899.61   24.06  889.32   23.92
  870.66   23.67  877.73   23.77  886.74   23.89  889.32   23.92  837.84   23.22
  856.50   23.48  907.34   24.16  848.13   23.36  922.14   24.36  839.77   23.25
  896.40   24.02  882.88   23.84  864.86   23.59  882.24   23.83  871.30   23.68
  851.99   23.41  827.54   23.08  812.10   22.86  841.70   23.27  864.86   23.59
  811.45   22.85  770.91   22.27  787.00   22.50  764.48   22.18  790.22   22.55
  761.26   22.13  759.97   22.11  792.79   22.59  745.82   21.91  790.86   22.56
  736.16   21.77  729.09   21.66  797.94   22.66  749.68   21.96  767.70   22.23
  734.88   21.75  800.51   22.70  767.05   22.22  786.36   22.49  812.74   22.87
  848.13   23.36  857.79   23.49  888.03   23.90  842.99   23.29  875.80   23.74
  924.71   24.39  923.71   19.57  885.16   19.16  965.17   20.00 1002.49   20.39
  991.71   20.28 1020.73   20.57 1092.93   25.96 1060.26   25.57 1057.79   25.54
 1072.58   25.71 1142.86   26.54 1134.23   26.44 1067.65   25.65 1096.01   25.99
 1063.34   25.60 1084.91   25.86 1067.04   25.65 1076.90   25.76 1050.39   25.45
 1052.86   25.48 1054.71   25.50 1051.63   25.46 1071.97   25.71 1023.27   25.12
 1025.12   25.14 1095.39   25.99 1086.76   25.88 1073.82   25.73 1104.02   26.09
 1186.01   27.04 1218.06   27.40 1266.14   27.94 1284.02   28.13 1308.06   28.40
 1368.47   29.04 1438.13   29.77 1504.08   30.45 1574.97   31.16 1586.69   31.27
 1671.75   32.10 1650.18   31.89 1653.88   31.93 1620.59   31.61 1658.81   31.98
 1634.77   31.74 1534.91   30.76 1467.10   30.07 1433.19   29.72 1407.30   29.45
 1361.07   28.97 1306.21   28.38 1312.37   28.44 1251.96   27.78 1171.83   26.88
 1152.10   26.65 1153.14   21.54 1108.50   21.12 1046.56   20.52 1051.38   20.56
 1037.31   20.43 1023.81   24.38 1016.26   24.29 1042.39   24.60  996.52   24.06
 1001.74   24.12  993.61   24.02 1001.16   24.11  998.26   24.08 1070.27   24.93
 1099.88   25.27 1092.92   25.19 1112.66   25.42 1204.99   26.45 1264.81   27.10
 1201.51   26.41 1228.80   26.71 1322.30   27.71 1379.79   28.31 1381.53   28.32
 1431.48   28.83 1412.89   28.64 1421.02   28.73 1421.02   28.73 1387.92   28.39
 1419.28   28.71 1355.98   28.06 1324.04   27.73 1322.30   27.71 1225.90   26.68
 1222.42   26.64 1179.44   26.17 1074.91   24.98 1002.32   24.13 1036.59   24.53
 1024.39   24.39  966.32   23.69  925.09   23.18  893.73   22.78  891.99   22.76
  856.56   22.30  852.50   22.25  833.33   22.00  819.98   21.82  822.30   21.85
  839.14   22.08  783.39   21.33  780.49   21.29  788.04   21.39  778.16   21.26
  794.06   17.50  780.57   17.35  765.92   17.18  805.63   17.62  780.99   21.21
  815.55   21.67  841.47   22.01  843.77   22.04  874.87   22.45  814.40   21.66
  863.93   22.31  894.46   22.70  901.94   22.79  896.18   22.72  916.34   22.97
  903.67   22.81  937.65   23.24 1004.46   24.05 1018.86   24.22 1058.60   24.69
 1083.37   24.98 1155.94   25.80 1129.45   25.51 1228.51   26.60 1250.40   26.84
 1331.03   27.69 1390.35   28.30 1401.87   28.42 1412.24   28.52 1491.72   29.31
 1563.71   30.01 1430.67   28.71 1507.85   29.47 1498.63   29.38 1485.39   29.25
 1518.21   29.57 1499.78   29.39 1475.59   29.15 1467.53   29.07 1366.74   28.06
 1362.13   28.01 1285.53   27.21 1274.01   27.09 1156.52   25.81 1149.60   25.73
 1132.33   25.54 1122.53   25.43 1094.89   25.11 1049.39   24.58 1027.50   24.33
 1009.65   24.11 1025.77   24.31  985.46   23.82  974.12   19.88  963.57   19.78
  968.04   19.82  976.56   19.91  979.81   19.94 1002.13   20.17  983.90   24.80
  965.15   24.56 1060.17   25.74 1035.16   25.44 1092.05   26.13 1143.93   26.74
 1160.81   26.94 1172.68   27.07 1183.93   27.20 1164.56   26.98 1248.32   27.93
 1270.20   28.18 1287.08   28.36 1315.21   28.67 1282.70   28.32 1242.07   27.86
 1290.83   28.41 1263.95   28.11 1226.44   27.69 1272.70   28.21 1242.69   27.87
 1223.32   27.65 1187.69   27.25 1202.69   27.42 1107.67   26.31 1122.05   26.48
 1151.43   26.83 1080.79   25.99 1072.04   25.89 1118.92   26.45 1091.42   26.12
 1074.54   25.92 1095.80   26.17 1132.05   26.60 1086.42   26.06 1118.92   26.45
 1095.80   26.17 1147.68   26.78 1180.81   27.17 1152.06   26.84 1147.05   26.78
 1187.69   27.25 1184.56   27.21 1194.56   27.33 1177.68   27.13 1192.69   27.30
 1197.06   27.35 1148.93   26.80 1143.93   26.74 1090.17   26.10 1095.17   26.16
 1077.67   25.95 1066.42   25.82 1057.67   25.71  969.07   36.50  927.84   35.71
  896.22   35.10  934.71   35.84  970.45   36.52  826.12   33.70  816.49   33.50
  815.12   33.47  794.50   33.05  791.75   32.99  820.62   33.59  859.11   34.36
  800.00   33.16  745.02   32.00  717.53   31.41  797.25   33.10  767.01   32.47
  800.00   33.16  791.75   32.99  775.26   32.64  749.14   32.09  801.37   33.19
  789.00   32.93  775.26   32.64  871.48   34.61  854.98   34.28  819.24   33.56
  834.36   33.87  867.35   34.53  845.36   34.09  867.35   34.53  893.47   35.04
  893.47   35.04  849.48   34.17  827.49   33.73  919.59   35.55  903.09   35.23
  886.60   34.91  912.71   35.42  839.86   33.98  911.34   35.39  922.34   35.61
  871.48   34.61  853.61   34.25  904.47   35.26  853.61   34.25  850.86   34.20
  859.11   34.36  846.74   34.12  817.87   33.53  820.62   33.59  798.63   33.13
  801.37   33.19                                                                