                                                                                
BANK 1 2431 487 CONST  602.500    5.000 0 0 ESD                                 
  625.25   26.64  611.63   26.34  628.65   26.71  625.25   26.64  633.19   26.81
  603.69   26.17  573.05   25.50  615.04   26.42  633.19   26.81  635.46   26.85
  588.94   25.85  653.62   27.23  612.77   26.37  582.13   25.70  593.48   25.95
  617.30   26.47  615.04   26.42  562.84   25.27  632.06   26.78  603.69   26.17
  595.74   26.00  574.18   25.53  619.57   26.52  573.05   25.50  603.69   26.17
  579.86   25.65  554.89   25.09  557.16   25.14  579.86   25.65  599.15   26.07
  622.98   26.59  604.82   26.20  622.98   26.59  567.38   25.37  593.48   25.95
  612.77   26.37  610.50   26.32  594.61   25.98  565.11   25.32  628.65   26.71
  583.26   25.73  566.24   25.35  536.74   24.68  570.78   25.45  571.91   25.48
  607.09   26.25  611.63   26.34  619.57   26.52  543.55   24.84  574.18   25.53
  566.24   25.35  658.16   27.33  566.34   17.89  578.21   18.08  548.82   17.61
  578.78   18.09  573.12   18.00  601.95   18.45  603.65   18.47  551.08   17.65
  586.69   18.21  571.43   17.97  578.21   18.08  558.99   17.77  569.73   17.94
  597.43   18.38  592.34   18.30  565.21   17.87  577.08   18.06  574.25   18.02
  590.65   18.27  616.65   18.67  557.86   17.76  593.47   18.31  619.47   18.71
  577.65   18.07  569.73   17.94  576.52   18.05  587.25   18.22  561.82   17.82
  613.82   18.63  540.34   17.48  583.86   18.17  573.12   18.00  578.21   18.08
  566.91   17.90  581.04   18.12  586.69   18.21  575.95   18.04  594.04   18.32
  551.08   17.65  565.21   17.87  573.12   18.00  542.04   17.50  593.47   18.31
  575.39   18.03  587.25   18.22  559.56   17.78  596.86   18.37  580.47   18.11
  616.08   18.66  569.73   17.94  546.56   17.58  570.30   17.95  593.47   18.31
  612.06   15.10  589.32   14.82  610.94   15.09  581.49   14.72  538.63   14.17
  577.02   14.67  576.65   14.66  572.92   14.61  593.95   18.16  560.64   17.64
  578.41   17.92  557.31   17.59  583.40   18.00  592.28   18.13  587.84   18.06
  585.62   18.03  590.62   18.11  577.85   17.91  597.84   18.22  591.73   18.12
  580.07   17.94  591.17   18.12  575.63   17.88  572.86   17.83  597.28   18.21
  573.41   17.84  573.97   17.85  582.85   17.99  570.08   17.79  567.31   17.75
  585.07   18.02  587.29   18.06  553.98   17.54  541.77   17.34  592.84   18.14
  591.17   18.12  576.19   17.88  582.85   17.99  563.97   17.69  586.73   18.05
  592.28   18.13  593.39   18.15  601.72   18.28  586.18   18.04  570.64   17.80
  567.86   17.75  605.61   18.33  568.42   17.76  585.62   18.03  590.62   18.11
  587.29   18.06  597.84   18.22  542.88   17.36  571.19   17.81  581.18   17.96
  571.96   14.57  578.64   14.66  571.96   14.57  566.39   14.50  558.96   14.41
  584.65   18.00  563.04   17.66  562.48   17.66  572.46   17.81  563.04   17.66
  578.00   17.90  585.76   18.02  596.29   18.18  581.32   17.95  585.20   18.01
  541.98   17.33  549.18   17.45  564.15   17.68  590.75   18.09  559.71   17.61
  581.88   17.96  582.99   17.97  556.94   17.57  575.78   17.86  579.11   17.91
  564.70   17.69  564.70   17.69  581.32   17.95  583.54   17.98  566.92   17.72
  556.94   17.57  575.78   17.86  576.89   17.88  580.77   17.94  574.67   17.85
  572.46   17.81  621.22   18.55  618.45   18.51  595.73   18.17  595.73   18.17
  570.24   17.78  557.50   17.58  580.22   17.93  641.17   18.85  551.95   17.49
  560.82   17.63  543.64   17.36  581.32   17.95  555.28   17.54  579.66   17.92
  590.75   18.09  565.81   17.71  581.32   17.95  602.94   18.28  593.52   18.14
  592.92   14.80  594.03   14.82  579.98   14.64  602.76   18.34  548.63   17.50
  589.93   18.15  564.81   17.75  567.60   17.80  578.76   17.97  634.58   18.82
  570.39   17.84  607.23   18.41  593.27   18.20  599.97   18.30  612.81   18.49
  585.46   18.08  580.44   18.00  607.23   18.41  634.58   18.82  610.58   18.46
  627.32   18.71  683.13   19.53  673.64   19.39  704.34   19.83  703.22   19.81
  782.48   20.90  798.66   21.11  862.84   21.94  951.03   23.04 1058.74   24.31
 1122.37   25.03 1270.27   26.63 1369.61   27.65 1626.34   30.13 1912.10   32.67
 2346.31   36.19 2819.03   39.67 3269.99   42.72 3784.01   45.96 4037.39   47.47
 4118.88   47.95 3871.63   46.48 3327.47   43.09 2702.39   38.84 1991.91   33.34
 1425.42   28.21 1097.25   24.75  820.43   21.40  762.38   20.63  667.50   19.30
  654.11   19.11  687.60   19.59  663.60   19.24  631.23   18.77  646.80   15.79
  634.46   15.64  633.30   15.63  661.07   15.97  624.06   19.15  613.49   18.99
  662.26   19.73  631.12   19.26  649.33   19.53  656.97   19.65  685.76   20.07
  707.51   20.39  739.83   20.85  752.75   21.03  782.72   21.45  813.87   21.87
  923.17   23.29  984.28   24.05 1144.12   25.93 1235.20   26.94 1489.64   29.59
 1768.18   32.23 2144.26   35.50 2677.83   39.67 3100.93   42.69 3600.41   46.00
 3923.02   48.01 4088.14   49.01 3930.07   48.06 3484.06   45.25 2815.92   40.68
 2167.77   35.69 1685.91   31.48 1165.86   26.17  942.56   23.53  802.12   21.71
  715.15   20.50  698.10   20.25  659.91   19.69  652.27   19.58  611.72   18.96
  651.68   19.57  664.02   19.75  654.03   19.60  581.17   18.48  618.19   19.06
  579.40   18.45  612.31   18.97  621.13   19.10  595.27   18.70  591.16   18.64
  584.10   18.53  594.09   18.68  592.28   15.33  608.15   15.53  598.63   15.41
  578.40   15.15  569.67   15.03  584.35   15.23  619.75   19.56  579.01   18.91
  584.57   19.00  648.77   20.01  619.75   19.56  603.70   19.30  641.98   19.91
  569.75   18.75  603.70   19.30  625.93   19.66  596.91   19.20  658.02   20.15
  663.58   20.24  685.80   20.58  706.17   20.88  741.98   21.40  789.51   22.08
  849.38   22.90  919.75   23.83 1052.47   25.49 1129.63   26.41 1321.60   28.56
 1422.84   29.64 1419.75   29.60 1486.42   30.29 1351.23   28.88 1238.89   27.65
 1058.02   25.56  910.49   23.71  807.41   22.32  698.77   20.77  658.64   20.16
  619.75   19.56  641.98   19.91  605.56   19.33  584.57   19.00  572.22   18.79
  556.17   18.53  581.48   18.95  598.77   19.23  569.75   18.75  550.00   18.43
  596.91   19.20  529.63   18.08  572.22   18.79  585.80   19.02  561.73   18.62
  559.26   18.58  570.94   15.55  577.72   15.64  562.90   15.44  589.58   15.80
  554.85   15.33  582.38   15.71  562.18   18.98  565.38   19.04  592.31   19.49
  567.95   19.08  573.72   19.18  533.33   18.49  542.31   18.64  570.51   19.12
  564.10   19.02  550.00   18.78  564.74   19.03  558.33   18.92  539.10   18.59
  589.10   19.43  570.51   19.12  553.21   18.83  582.69   19.33  532.69   18.48
  524.36   18.33  562.18   18.98  608.97   19.76  567.95   19.08  552.56   18.82
  531.41   18.46  575.64   19.21  528.85   18.41  519.23   18.24  557.05   18.90
  535.90   18.53  544.87   18.69  582.69   19.33  541.67   18.63  558.33   18.92
  526.92   18.38  541.03   18.62  563.46   19.01  548.08   18.74  535.90   18.53
  533.97   18.50  549.36   18.77  566.03   19.05  545.51   18.70  537.18   18.56
  558.33   18.92  517.95   18.22  548.72   18.75  557.05   18.90  532.69   18.48
  566.03   19.05  520.38   14.65  582.69   15.51  538.12   14.90  547.61   15.03
  544.80   18.43  561.01   18.70  542.93   18.40  539.19   18.33  550.41   18.52
  536.08   18.28  550.41   18.52  533.58   18.24  546.05   18.45  518.00   17.97
  551.66   18.54  509.27   17.82  532.96   18.23  566.62   18.79  566.00   18.78
  522.36   18.04  569.74   18.85  546.67   18.46  557.89   18.65  575.97   18.95
  552.91   18.56  542.31   18.39  529.22   18.16  553.53   18.58  599.03   19.32
  569.11   18.83  572.85   18.90  551.66   18.54  551.66   18.54  533.58   18.24
  579.09   19.00  563.50   18.74  507.40   17.78  551.04   18.53  543.56   18.41
  546.05   18.45  554.15   18.59  552.28   18.55  549.17   18.50  535.45   18.27
  518.62   17.98  531.71   18.21  555.40   18.61  575.35   18.94  548.54   18.49
  562.26   18.72  566.62   18.79  567.24   18.80  543.56   18.41  533.58   14.70
  508.86   14.36  544.92   14.86  515.75   14.46  572.88   15.23  555.22   17.93
  507.16   17.14  528.59   17.49  529.74   17.51  558.11   17.98  565.64   18.10
  526.27   17.46  569.69   18.16  555.22   17.93  556.38   17.95  567.38   18.12
  562.74   18.05  563.32   18.06  551.74   17.87  538.43   17.66  558.69   17.98
  548.85   17.83  532.64   17.56  562.17   18.04  521.06   17.37  575.48   18.25
  555.80   17.94  549.43   17.84  575.48   18.25  593.43   18.54  569.11   18.15
  564.48   18.08  564.48   18.08  551.74   17.87  573.74   18.23  548.27   17.82
  567.38   18.12  583.01   18.37  590.53   18.49  570.27   18.17  629.32   19.09
  665.80   19.63  690.11   19.99  817.48   21.76  836.01   22.00  895.06   22.76
  922.28   23.11  971.49   23.72  939.06   23.32  888.70   22.68  746.27   20.79
  692.43   20.02  651.90   19.43  605.59   18.72  596.90   18.59  595.45   15.24
  570.48   14.92  567.36   14.88  548.63   14.63  542.00   14.54  580.76   18.49
  559.58   18.15  551.34   18.01  541.92   17.86  565.46   18.24  534.86   17.74
  546.04   17.92  524.86   17.57  548.98   17.97  549.57   17.98  566.64   18.26
  537.81   17.79  527.21   17.61  526.04   17.59  530.16   17.66  541.34   17.85
  578.99   18.46  547.22   17.94  576.05   18.41  520.74   17.50  553.10   18.04
  571.93   18.34  561.34   18.17  547.22   17.94  556.63   18.10  570.76   18.33
  550.16   17.99  565.46   18.24  575.46   18.40  572.52   18.35  541.34   17.85
  578.99   18.46  599.00   18.77  583.70   18.53  587.82   18.60  628.42   19.23
  642.54   19.44  623.71   19.16  630.19   19.26  633.13   19.30  651.37   19.58
  603.71   18.85  571.93   18.34  614.30   19.01  548.40   17.96  552.52   18.03
  565.46   18.24  570.17   18.32  585.47   15.08  552.45   14.65  558.66   14.73
  556.72   14.71  565.27   14.82  570.76   18.27  560.23   18.10  560.82   18.11
  537.43   17.73  542.11   17.81  581.87   18.45  554.97   18.02  598.83   18.71
  543.27   17.82  571.35   18.28  552.05   17.97  597.66   18.70  547.95   17.90
  560.23   18.10  621.05   19.06  562.57   18.14  574.27   18.33  587.72   18.54
  584.80   18.49  564.33   18.17  575.44   18.34  550.29   17.94  635.67   19.28
  553.22   17.99  584.21   18.48  593.57   18.63  582.46   18.46  565.50   18.19
  586.55   18.52  585.96   18.51  606.43   18.83  587.13   18.53  628.65   19.17
  628.07   19.16  643.86   19.40  634.50   19.26  708.19   20.35  667.84   19.76
  774.85   21.29  833.33   22.08  858.48   22.41  874.85   22.62  932.16   23.35
  916.96   23.16  905.85   23.02  800.00   21.63  818.71   21.88  812.87   21.80
  888.30   22.79  931.50   19.08 1042.90   20.19 1217.24   21.81 1377.11   23.20
 1502.20   24.23 1599.92   25.01 1682.77   31.25 1631.69   30.78 1445.94   28.97
 1334.49   27.83 1142.94   25.76  934.55   23.29  849.22   22.20  795.24   21.49
  781.31   21.30  703.53   20.21  730.23   20.59  759.83   21.00  736.61   20.68
  785.37   21.35  810.91   21.70  857.93   22.32  902.05   22.88  946.16   23.44
  961.25   23.62 1101.73   25.29 1210.85   26.51 1349.01   27.98 1508.63   29.59
 1713.54   31.54 2066.46   34.63 2570.31   38.63 3211.73   43.18 4285.59   49.88
 5684.52   57.44 7764.91   67.1410264.40   77.1912936.87   86.6615529.24   94.94
17139.46   99.7416848.06   98.8915604.12   95.1713077.35   87.1310121.03   76.65
 7292.41   65.06 5084.89   54.33 3599.48   45.71 2699.75   39.59 2062.40   34.60
 1765.78   32.02 1557.39   30.07 1424.47   28.76 1317.66   27.66 1273.05   22.93
 1296.17   23.13 1360.17   23.70 1563.33   25.41 1785.49   27.15 2055.13   29.13
 2360.96   39.06 2607.21   41.05 2697.04   41.75 2753.27   42.18 2489.58   40.11
 2141.22   37.20 1792.86   34.04 1412.83   30.22 1196.32   27.81 1001.13   25.44
  904.18   24.17  807.24   22.84  738.73   21.85  714.82   21.49  666.34   20.75
  666.99   20.76  657.30   20.61  647.60   20.46  645.66   20.43  675.39   20.89
  660.53   20.66  657.30   20.61  679.27   20.95  652.12   20.53  704.48   21.34
  732.27   21.75  675.39   20.89  723.86   21.63  717.40   21.53  712.88   21.46
  785.91   22.54  726.45   21.67  719.99   21.57  709.65   21.42  647.60   20.46
  623.69   20.08  649.54   20.49  603.65   19.75  614.64   19.93  591.37   19.55
  643.08   20.39  609.47   19.85  603.65   19.75  551.30   18.88  580.38   19.37
  589.43   19.52  604.94   19.77  571.34   19.22  571.34   19.22  563.59   15.37
  587.05   15.68  564.84   15.38  579.09   15.58  535.51   14.98  577.28   19.37
  572.08   19.28  573.38   19.31  581.18   19.44  555.83   19.01  575.98   19.35
  572.08   19.28  592.23   19.62  569.48   19.24  578.58   19.39  525.92   18.49
  571.43   19.27  554.53   18.99  574.03   19.32  547.38   18.86  548.68   18.89
  587.03   19.54  587.03   19.54  529.82   18.56  516.82   18.33  546.73   18.85
  582.48   19.46  585.73   19.51  557.78   19.04  535.02   18.65  542.17   18.77
  559.73   19.08  549.98   18.91  561.68   19.11  506.42   18.14  570.13   19.25
  586.38   19.52  556.48   19.02  529.82   18.56  545.42   18.83  563.63   19.14
  607.18   19.87  575.98   19.35  516.17   18.32  561.68   19.11  534.37   18.64
  562.33   19.12  527.87   18.52  537.62   18.70  564.93   19.16  545.42   18.83
  529.17   18.55  570.13   19.25  557.78   19.04  557.51   15.43  553.67   15.38
  578.87   15.73  543.84   15.24  568.30   18.61  576.82   18.74  556.11   18.40
  535.40   18.06  578.04   18.76  540.28   18.14  568.91   18.62  557.94   18.43
  563.42   18.53  592.05   18.99  580.48   18.80  537.84   18.10  560.38   18.48
  556.11   18.40  540.89   18.15  559.16   18.46  523.22   17.85  577.43   18.75
  549.41   18.29  569.51   18.63  562.20   18.51  603.62   19.17  554.29   18.37
  547.59   18.26  578.04   18.76  550.63   18.31  565.25   18.56  580.48   18.80
  560.99   18.49  587.79   18.92  614.59   19.35  601.19   19.14  642.61   19.78
  618.24   19.41  662.71   20.09  662.71   20.09  691.94   20.53  715.70   20.88
  763.21   21.56  843.00   22.66  990.41   24.56 1142.68   26.38 1232.22   27.40
 1403.99   29.24 1480.74   30.03 1523.37   30.46 1408.86   29.29 1330.29   28.47
 1179.23   26.80 1021.47   24.94  898.49   18.96  774.88   17.61  746.87   17.29
  696.47   16.69  692.87   16.65  683.53   20.29  659.44   19.93  625.11   19.40
  677.51   20.20  641.37   19.65  658.24   19.91  666.06   20.03  701.60   20.56
  770.85   21.55  828.67   22.34  893.10   23.19 1064.74   25.32 1217.71   27.08
 1531.47   30.37 1977.72   34.51 2433.60   38.28 2829.87   41.28 3149.65   43.55
 3136.40   43.46 3067.15   42.98 2608.25   39.63 2127.07   35.79 1771.76   32.66
 1379.70   28.83 1079.19   25.49  883.47   23.07  813.61   22.14  700.39   20.54
  700.99   20.55  692.56   20.42  616.68   19.27  590.79   18.86  620.90   19.34
  610.06   19.17  609.45   19.16  587.17   18.80  592.59   18.89  573.92   18.59
  582.35   18.73  577.54   18.65  572.12   18.56  587.77   18.81  579.34   18.68
  599.22   19.00  584.76   18.77  574.53   18.60  587.17   18.80  575.13   18.61
  585.97   18.79  568.27   15.26  573.19   15.33  597.79   15.66  573.19   15.33
  608.86   15.80  639.17   19.76  630.00   19.62  634.89   19.70  637.34   19.73
  620.23   19.47  660.56   20.09  639.17   19.76  677.05   20.34  711.27   20.85
  686.22   20.48  741.83   21.29  747.94   21.38  818.82   22.37  875.04   23.12
  943.48   24.01  972.20   24.37 1076.08   25.64 1217.23   27.27 1399.33   29.24
 1568.59   30.96 1869.84   33.80 2205.93   36.71 2872.59   41.90 3584.48   46.80
 4300.03   51.26 4974.64   55.13 5404.22   57.47 5432.33   57.61 4975.86   55.14
 4356.86   51.60 3539.87   46.51 2786.43   41.26 2153.99   36.28 1735.41   32.56
 1335.17   28.56 1090.74   25.82 1054.69   25.39  870.15   23.06  857.93   22.90
  815.15   22.32  796.21   22.06  742.44   21.30  681.33   20.40  688.66   20.51
  644.67   19.85  640.39   19.78  645.89   19.87  642.22   19.81  625.73   19.55
  641.84   16.23  606.96   15.78  604.90   15.76  629.53   16.07  612.70   15.86
  615.04   19.74  599.21   19.48  596.67   19.44  635.31   20.06  637.21   20.09
  668.88   20.58  744.26   21.71  741.73   21.68  777.20   22.19  876.01   23.56
 1052.10   25.81 1220.59   27.81 1442.91   30.23 1755.82   33.35 1955.98   35.20
 2257.48   37.81 2362.00   38.68 2252.41   37.77 2049.72   36.03 1724.78   33.05
 1454.95   30.36 1258.59   28.23 1009.66   25.29  893.11   23.78  812.67   22.69
  706.25   21.15  682.19   20.79  649.25   20.28  628.98   19.96  613.14   19.71
  638.48   20.11  620.74   19.83  586.54   19.27  625.18   19.90  590.34   19.34
  625.18   19.90  634.05   20.04  670.78   20.61  675.22   20.68  752.49   21.83
  784.16   22.29  797.47   22.47  779.73   22.22  750.59   21.80  676.48   20.70
  666.98   20.55  635.31   20.06  575.14   19.09  592.24   19.37  585.20   15.90
  594.71   16.03  544.57   15.34  590.82   15.98  545.00   15.35  521.09   18.42
  540.63   18.77  566.03   19.20  508.71   18.20  535.42   18.67  523.69   18.47
  556.26   19.03  543.89   18.82  530.86   18.60  536.72   18.70  557.56   19.06
  557.56   19.06  516.53   18.34  510.67   18.24  559.52   19.09  541.93   18.79
  531.51   18.61  531.51   18.61  554.96   19.01  512.62   18.27  495.03   17.96
  551.05   18.95  518.48   18.38  532.81   18.63  499.59   18.04  500.24   18.05
  560.82   19.11  550.40   18.93  536.72   18.70  583.62   19.50  556.91   19.05
  551.70   18.96  526.95   18.53  545.19   18.84  519.13   18.39  553.66   18.99
  559.52   19.09  564.08   19.17  611.63   19.96  581.66   19.46  614.88   20.01
  690.44   21.21  709.98   21.50  781.63   22.56  794.66   22.75  872.82   23.84
  825.27   23.19  812.25   23.00  741.25   21.97  701.87   17.31  677.12   17.00
  608.85   16.12  624.64   16.33  585.39   15.80  574.02   19.28  569.48   19.21
  541.63   18.73  544.87   18.79  517.65   18.31  556.53   18.99  542.92   18.75
  568.84   19.20  585.03   19.47  557.82   19.01  562.36   19.09  539.68   18.70
  585.03   19.47  549.40   18.87  586.33   19.49  561.06   19.07  563.01   19.10
  597.99   19.68  561.06   19.07  616.78   19.99  591.51   19.58  601.88   19.75
  639.46   20.35  664.08   20.74  735.34   21.83  724.98   21.67  752.19   22.08
  794.30   22.68  921.93   24.44 1024.30   25.76 1211.53   28.02 1304.83   29.08
 1345.00   29.52 1490.77   31.08 1353.42   29.61 1356.66   29.65 1200.52   27.89
 1100.10   26.70 1026.24   25.79  910.92   24.29  904.44   24.21  865.57   23.68
  839.65   23.32  834.47   23.25  801.43   22.79  830.58   23.20  865.57   23.68
  864.27   23.66  934.89   24.61  930.83   19.69 1055.83   20.97 1106.25   21.47
 1326.67   23.51 1483.33   24.86 1720.72   32.15 1943.54   34.17 2053.45   35.12
 2361.56   37.66 2605.41   39.56 2727.93   40.48 3042.04   42.74 3451.05   45.53
 3920.12   48.52 4455.26   51.73 4803.60   53.71 4900.30   54.25 4679.88   53.02
 4373.57   51.25 3815.62   47.87 3118.92   43.28 2502.10   38.77 2092.49   35.45
 1696.70   31.92 1430.03   29.31 1273.27   27.65 1082.28   25.50 1007.81   24.60
  927.33   23.60  845.65   22.54  846.25   22.54  796.40   21.87  769.97   21.50
  742.34   21.12  711.71   20.67  707.51   20.61  688.29   20.33  646.85   19.71
  639.04   19.59  592.19   18.86  601.20   19.00  601.20   19.00  634.83   19.53
  618.02   19.27  589.19   18.81  616.22   19.24  619.82   19.29  637.24   19.56
  685.89   20.30  657.06   19.87  697.30   20.46  742.94   21.12  766.97   21.46
  805.18   18.06  846.09   18.51  863.91   18.71  818.96   18.21  850.14   18.56
  774.40   17.71  760.61   21.40  740.14   21.11  684.73   20.31  630.53   19.49
  567.90   18.49  627.52   19.44  595.60   18.94  596.21   18.95  621.50   19.35
  641.98   19.66  587.17   18.80  600.42   19.02  616.08   19.26  641.98   19.66
  604.64   19.08  635.35   19.56  689.55   20.38  726.29   20.91  806.38   22.04
  849.14   22.61  982.84   24.33 1120.75   25.98 1325.50   28.25 1538.09   30.43
 1840.41   33.29 2107.80   35.63 2414.94   38.14 2551.04   39.20 2498.64   38.79
 2324.60   37.42 2066.25   35.28 1831.38   33.21 1505.57   30.11 1303.22   28.01
 1127.37   26.06  947.31   23.89  856.37   22.71  787.11   21.77  767.24   21.50
  664.26   20.00  701.60   20.56  636.56   19.58  593.80   18.91  636.56   19.58
  574.53   18.60  576.93   18.64  593.19   18.90  561.88   18.40  585.90   15.44
  557.83   15.07  548.06   14.93  561.49   15.11  542.77   14.86  541.96   14.85
  578.30   19.00  530.84   18.21  511.48   17.87  489.62   17.49  512.10   17.88
  537.70   18.32  525.84   18.12  519.59   18.01  532.71   18.24  550.82   18.55
  517.10   17.97  518.97   18.00  569.56   18.86  557.06   18.65  569.56   18.86
  551.44   18.56  543.33   18.42  558.94   18.68  542.70   18.41  529.59   18.19
  517.10   17.97  544.57   18.44  534.58   18.27  549.57   18.53  547.07   18.48
  574.55   18.94  548.95   18.52  580.80   19.05  571.43   18.89  556.44   18.64
  579.55   19.02  570.80   18.88  585.79   19.13  598.28   19.33  566.43   18.81
  577.05   18.98  566.43   18.81  618.89   19.66  641.37   20.01  649.49   20.14
  675.10   20.53  678.84   20.59  668.23   20.43  678.22   20.58  735.05   21.43
  753.16   21.69  761.28   21.80  822.48   22.66  863.37   19.16  896.54   19.53
  955.24   20.16 1032.64   20.96 1163.21   22.24 1242.85   28.34 1401.20   30.09
 1526.58   31.41 1705.61   33.20 1877.52   34.83 2033.93   36.26 2348.04   38.96
 2631.77   41.24 2918.08   43.43 3200.52   45.48 3546.94   47.88 3571.50   48.04
 3376.31   46.71 3084.83   44.65 2756.50   42.21 2360.96   39.06 1945.39   35.46
 1680.40   32.96 1374.70   29.81 1131.04   27.04  999.19   25.41  921.64   24.41
  842.14   23.33  778.15   22.43  721.93   21.60  683.79   21.02  696.72   21.22
  654.06   20.56  657.30   20.61  617.87   19.98  601.71   19.72  633.38   20.23
  596.54   19.64  608.82   19.84  615.93   19.95  588.79   19.51  570.69   19.21
  590.08   19.53  546.13   18.79  585.56   19.45  573.92   19.26  577.80   19.32
  586.20   19.46  598.48   19.67  592.02   19.56  551.95   18.89  537.73   18.64
  544.84   18.77  578.45   19.34  586.81   16.23  571.56   16.01  585.02   16.20
  616.87   16.64  590.40   16.27  664.22   21.54  648.16   21.28  674.00   21.70
  664.92   21.55  675.40   21.72  720.10   22.43  768.29   23.16  850.71   24.38
  887.03   24.89 1036.49   26.91 1159.42   28.46 1346.60   30.67 1484.90   32.20
 1820.15   35.65 2138.64   38.65 2380.30   40.77 2582.15   42.47 2769.34   43.98
 2629.65   42.86 2458.53   41.44 2244.11   39.59 1913.74   36.56 1610.62   33.54
 1426.93   31.57 1256.50   29.62 1069.32   27.33  899.60   25.07  859.09   24.50
  768.29   23.16  776.67   23.29  702.64   22.15  679.59   21.79  666.32   21.57
  680.29   21.80  619.52   20.80  614.63   20.72  633.49   21.03  594.38   20.37
  609.74   20.64  613.24   20.70  570.63   19.96  599.27   20.46  643.27   21.20
  609.04   20.62  597.87   20.43  604.85   20.55  623.71   20.87  639.08   21.13
  644.67   21.22  635.59   21.07  635.44   16.72  648.20   16.88  708.88   17.66
  682.50   17.32  664.04   20.87  726.38   21.83  732.94   21.93  742.78   22.08
  780.84   22.64  761.81   22.36  860.89   23.77  923.23   24.61  976.38   25.31
 1076.12   26.57 1205.38   28.12 1280.18   28.98 1463.25   30.99 1518.37   31.56
 1675.20   33.15 1635.17   32.76 1580.71   32.21 1526.25   31.65 1427.82   30.61
 1370.08   29.98 1312.99   29.35 1198.16   28.04 1145.67   27.42 1095.14   26.81
 1192.91   27.98 1235.56   28.47 1269.69   28.86 1388.45   30.18 1463.25   30.99
 1713.91   33.54 1934.38   35.63 2233.60   38.28 2583.33   41.17 3091.21   45.04
 3498.03   47.91 3836.61   50.17 4094.49   51.83 4163.39   52.27 3858.27   50.32
 3562.99   48.35 3350.39   46.89 2875.98   43.44 2504.59   40.54 2301.84   38.86
 2072.18   36.87 1919.95   35.49 1800.52   34.37 1775.59   34.13 1738.19   33.77
 1799.70   27.81 1797.12   27.79 1797.55   27.80 1695.68   27.00 1580.49   26.06
 1411.16   29.29 1311.45   28.24 1229.97   27.35 1036.63   25.11  994.68   24.59
  938.14   23.88  890.71   23.27  814.11   22.25  755.74   21.44  785.53   21.85
  781.27   21.79  780.06   21.78  810.46   22.20  855.45   22.81  874.91   23.06
  945.43   23.98  987.38   24.50  985.56   24.48 1040.89   25.16 1064.60   25.44
 1005.02   24.72  972.79   24.32  951.51   24.05  891.32   23.28  792.22   21.95
  758.78   21.48  704.06   20.69  666.97   20.14  648.73   19.86  634.14   19.64
  606.78   19.21  603.13   19.15  590.97   18.96  575.16   18.70  601.92   19.13
  569.08   18.60  544.76   18.20  552.67   18.33  546.59   18.23  557.53   18.41
  584.28   18.85  570.91   18.63  547.80   18.25  527.13   17.90  525.92   17.88
  527.74   17.91  564.83   18.53  525.92   17.88  569.69   18.61  567.32   15.15
  535.36   14.72  554.38   14.98  599.70   15.58  609.41   15.70  597.67   15.55
  589.32   19.02  583.79   18.93  594.84   19.11  597.30   19.15  597.91   19.16
  650.71   19.99  629.83   19.66  578.88   18.85  615.72   19.44  583.79   18.93
  586.86   18.98  596.07   19.13  607.73   19.32  622.47   19.55  586.86   18.98
  585.64   18.96  581.34   18.89  599.14   19.18  577.66   18.83  589.93   19.03
  563.54   18.60  585.64   18.96  625.54   19.60  650.09   19.98  641.50   19.84
  647.64   19.94  710.25   20.88  722.53   21.06  813.38   22.35  812.77   22.34
  871.70   23.13  973.60   24.45  998.16   24.75 1067.53   25.60 1136.89   26.42
 1063.23   25.55 1053.41   25.43 1034.38   25.20  962.55   24.31  888.28   23.35
  782.69   21.92  758.75   21.58  740.95   21.33  721.92   21.05  648.25   19.95
  681.40   20.45  654.39   20.04  685.70   20.52  678.33   20.41  628.02   15.90
  656.20   16.25  639.69   16.05  659.02   16.29  591.73   18.76  613.14   19.10
  598.87   18.87  570.32   18.42  565.57   18.34  570.92   18.43  526.91   17.70
  578.06   18.54  590.54   18.74  526.91   17.70  554.86   18.17  523.94   17.65
  528.10   17.72  545.35   18.01  515.02   17.50  524.53   17.66  504.31   17.32
  543.56   17.98  523.34   17.64  503.12   17.30  518.58   17.56  498.96   17.23
  492.42   17.11  521.56   17.61  530.48   17.76  522.75   17.63  523.34   17.64
  525.72   17.68  530.48   17.76  544.75   18.00  525.13   17.67  532.26   17.79
  526.32   17.69  540.59   17.93  530.48   17.76  527.51   17.71  544.16   17.99
  522.15   17.62  540.59   17.93  511.45   17.44  544.16   17.99  540.59   17.93
  547.13   18.04  559.02   18.23  563.78   18.31  558.43   18.22  579.84   18.57
  653.58   19.72  566.16   18.35  648.83   19.64  631.94   16.02  662.00   16.40
  708.70   16.97  690.83   16.75  710.38   20.84  775.18   21.77  823.48   22.44
  827.14   22.49  923.74   23.76 1003.82   24.77 1068.01   25.55 1183.55   26.90
 1289.32   28.08 1384.07   29.09 1517.96   30.46 1665.29   31.91 1749.04   32.70
 1862.14   33.74 1917.16   34.24 1931.22   34.36 1893.93   34.03 1766.16   32.86
 1620.05   31.47 1496.56   30.25 1346.17   28.69 1221.46   27.33 1058.23   25.43
  945.74   24.05  898.06   23.43  813.69   22.30  816.14   22.34  728.72   21.11
  730.55   21.13  707.93   20.80  629.68   19.62  635.18   19.71  652.30   19.97
  628.46   19.60  594.22   19.06  621.12   19.49  600.34   19.16  632.74   19.67
  665.75   20.17  639.46   19.77  640.68   19.79  655.97   20.03  719.55   20.97
  714.66   20.90  756.23   21.50  758.06   21.53  821.03   22.40  854.04   22.85
  915.18   23.65  897.54   19.07  876.86   18.85  886.59   18.96  857.40   18.64
  837.13   18.42  797.00   17.97  791.69   22.16  769.35   21.85  684.35   20.61
  711.65   21.01  701.72   20.87  660.77   20.25  672.56   20.43  651.47   20.10
  662.01   20.27  703.58   20.89  684.97   20.62  703.58   20.89  720.34   21.14
  829.53   22.69  813.40   22.46  782.38   22.03  797.89   22.25  789.20   22.13
  806.58   22.37  803.47   22.33  771.83   21.88  771.21   21.87  720.96   21.15
  665.74   20.32  681.87   20.57  627.89   19.74  601.21   19.31  616.72   19.56
  598.11   19.26  604.93   19.37  583.84   19.03  577.01   18.92  565.22   18.73
  570.19   18.81  572.05   18.84  554.06   18.54  583.84   19.03  581.98   19.00
  588.18   19.10  541.65   18.33  565.84   18.74  571.43   18.83  599.97   19.29
  577.01   18.92  586.32   19.07  609.28   19.44  666.36   20.33  634.71   19.84
  641.87   16.22  687.37   16.78  698.84   16.92  715.24   17.12  777.13   17.85
  795.98   18.06  849.31   22.63  849.31   22.63  948.16   23.91  986.14   24.38
 1027.12   24.88 1057.26   25.24 1133.82   26.14 1192.28   26.81 1239.90   27.34
 1273.66   27.71 1295.36   27.94 1298.98   27.98 1279.08   27.77 1219.41   27.11
 1214.59   27.06 1113.32   25.91 1038.58   25.02 1025.92   24.87  969.26   24.17
  924.05   23.60  839.06   22.49  863.17   22.81  748.04   21.23  754.07   21.32
  713.68   20.74  737.79   21.09  754.67   21.33  754.67   21.33  795.06   21.89
  783.60   21.73  788.43   21.80  855.33   22.71  827.00   22.33  837.85   22.47
  788.43   21.80  785.41   21.76  789.63   21.82  752.26   21.29  760.70   21.41
  741.41   21.14  738.40   21.10  672.69   20.14  706.45   20.64  637.13   19.60
  657.63   19.91  670.89   20.11  648.58   19.77  674.19   16.34  659.54   16.16
  678.95   16.40  715.39   16.83  718.56   16.87  726.88   16.97  787.72   21.57
  785.36   21.53  803.66   21.78  882.79   22.83  946.56   23.64  962.50   23.84
  996.16   24.25 1147.92   26.04 1306.76   27.78 1370.53   28.45 1591.38   30.65
 1687.04   31.56 1931.50   33.77 2073.22   34.99 2312.37   36.95 2348.98   37.24
 2399.76   37.64 2386.18   37.54 2239.74   36.37 2218.48   36.19 2012.99   34.48
 1844.11   33.00 1693.53   31.62 1516.39   29.92 1374.67   28.49 1201.06   26.63
 1060.53   25.02  974.31   23.99  934.75   23.49  847.95   22.38  808.98   21.86
  767.05   21.28  735.75   20.84  653.68   19.65  652.49   19.63  636.55   19.39
  628.88   19.27  601.71   18.85  636.55   19.39  608.80   18.96  572.19   18.38
  561.56   18.21  560.97   18.20  593.45   18.72  581.64   18.53  594.04   18.73
  576.32   18.45  588.13   18.64  555.06   18.10  558.87   14.84  561.63   14.88
  575.03   15.05  541.53   14.61  554.54   14.78  545.27   17.86  534.74   17.69
  578.03   18.39  533.57   17.67  535.91   17.71  562.23   18.14  545.27   17.86
  578.03   18.39  572.77   18.31  522.45   17.48  569.84   18.26  538.25   17.75
  560.48   18.11  556.38   18.04  558.72   18.08  562.23   18.14  585.05   18.50
  563.41   18.16  572.18   18.30  551.70   17.97  566.92   18.21  628.35   19.17
  603.19   18.79  586.22   18.52  603.77   18.79  579.79   18.42  606.70   18.84
  593.24   18.63  630.69   19.21  648.24   19.47  695.04   20.17  697.97   20.21
  699.14   20.22  659.94   19.65  741.85   20.83  810.30   21.77  840.13   22.17
  891.62   22.84  951.29   23.59 1037.30   24.63 1112.77   25.52 1180.05   26.28
 1348.54   28.09 1418.75   28.81 1566.77   30.28 1688.46   31.43 1776.22   32.24
 1859.30   32.98 1960.62   27.93 1967.38   27.97 1911.30   27.57 1875.10   27.31
 1842.48   27.07 1780.41   32.86 1636.03   31.50 1549.29   30.66 1461.33   29.77
 1338.79   28.50 1226.57   27.28 1162.88   26.56 1011.22   24.77  971.79   24.28
  956.63   24.09  870.49   22.98  914.77   23.56  889.90   23.23  813.47   22.21
  873.52   23.02  851.08   22.72  863.82   22.89  813.47   22.21  849.26   22.70
  837.73   22.54  832.88   22.48  824.99   22.37  798.91   22.01  737.03   21.14
  708.52   20.73  731.57   21.07  717.62   20.86  707.92   20.72  675.16   20.24
  647.86   19.82  641.80   19.73  590.23   18.92  618.74   19.37  626.63   19.50
  600.55   19.09  638.16   19.68  629.06   19.53  596.30   19.02  599.33   19.07
  578.10   18.73  618.14   19.36  598.73   19.06  605.40   19.16  600.55   19.09
  604.19   19.14  607.83   19.20  664.24   20.07  650.89   19.87  629.66   19.54
  662.42   20.05  678.53   16.52  678.13   16.52  686.98   16.62  723.58   17.06
  755.35   17.43  739.12   21.21  817.05   22.30  844.44   22.67  901.07   23.42
  991.78   24.57  977.78   24.40 1086.76   25.72 1109.89   25.99 1174.43   26.74
 1273.67   27.85 1356.47   28.74 1385.08   29.04 1443.53   29.65 1517.81   30.40
 1472.75   29.94 1549.47   30.71 1474.58   29.96 1439.88   29.61 1411.26   29.31
 1278.54   27.90 1249.32   27.58 1151.29   26.48 1075.19   25.59 1030.75   25.05
  946.73   24.01  896.80   23.37  862.71   22.92  820.70   22.35  808.52   22.19
  785.39   21.87  793.91   21.99  742.77   21.27  758.60   21.49  728.77   21.06
  711.11   20.81  765.30   21.59  748.25   21.34  714.16   20.85  776.86   21.75
  778.08   21.77  825.57   22.42  818.26   22.32  798.17   22.04  884.02   23.20
  915.07   23.60  949.16   24.04 1030.75   25.05 1025.88   24.99 1087.37   25.73
 1119.70   21.07 1131.99   21.18 1124.85   21.11 1165.68   21.49 1127.89   25.62
 1199.48   26.42 1187.25   26.29 1131.38   25.66 1116.25   25.49 1110.43   25.42
 1157.57   25.96 1098.79   25.29 1070.86   24.96 1151.75   25.89 1147.68   25.84
 1189.58   26.31 1292.59   27.43 1339.15   27.92 1414.81   28.69 1443.91   28.99
 1598.14   30.50 1571.95   30.25 1669.72   31.17 1677.29   31.24 1639.46   30.89
 1643.53   30.93 1659.83   31.08 1585.33   30.38 1509.68   29.64 1442.16   28.97
 1401.43   28.56 1229.74   26.75 1136.04   25.71 1153.50   25.91 1059.80   24.84
  960.28   23.64  914.30   23.07  868.33   22.48  825.84   21.92  774.63   21.23
  739.71   20.75  726.32   20.56  682.67   19.93  675.11   19.82  686.75   19.99
  668.12   19.72  636.11   19.24  658.23   19.57  645.42   19.38  632.62   19.19
  623.31   19.05  645.42   19.38  605.85   18.78  652.41   19.49  663.88   16.27
  659.49   16.22  651.52   16.12  669.86   16.34  686.60   16.55  705.28   20.55
  729.23   20.89  763.36   21.38  717.86   20.73  761.56   21.35  769.94   21.47
  753.78   21.24  821.43   22.18  811.85   22.05  811.26   22.04  820.84   22.17
  854.36   22.62  829.22   22.28  851.97   22.59  866.94   22.78  900.46   23.22
  911.84   23.37  902.86   23.25  902.86   23.25  925.61   23.54  982.49   24.25
 1044.75   25.01 1085.47   25.49 1128.57   25.99 1152.52   26.27 1239.34   27.24
 1257.90   27.44 1427.93   29.24 1486.01   29.83 1646.46   31.40 1739.86   32.28
 1868.58   33.45 2073.94   35.24 2212.24   36.39 2433.77   38.17 2606.20   39.50
 2791.20   40.88 2960.04   42.10 3157.01   43.48 3215.69   43.88 3292.92   44.40
 3315.67   44.55 3225.27   43.94 3166.59   43.54 3058.82   42.79 2941.48   41.97
 2804.97   40.98 2619.37   39.60 2336.18   37.40 2223.87   30.22 2085.44   29.27
 1888.27   27.85 1762.99   26.91 1640.58   25.96 1508.37   31.16 1353.93   29.52
 1274.13   28.63 1213.64   27.95 1060.49   26.12 1018.02   25.59  994.85   25.30
 1010.94   25.51  909.27   24.19  940.80   24.60  839.12   23.24  835.91   23.19
  868.73   23.64  791.51   22.57  768.98   22.25  784.43   22.47  814.03   22.89
  774.77   22.33  819.18   22.96  815.32   22.91  835.91   23.19  812.10   22.86
  840.41   23.26  835.26   23.18  875.16   23.73  809.52   22.82  767.05   22.22
  819.82   22.97  777.35   22.37  805.66   22.77  804.38   22.75  770.91   22.27
  792.79   22.59  767.70   22.23  764.48   22.18  736.16   21.77  755.47   22.05
  716.22   21.47  717.50   21.49  679.54   20.91  717.50   21.49  733.59   21.73
  625.48   20.06  682.75   20.96  659.59   20.60  711.07   21.39  679.54   20.91
  668.60   20.74  690.71   16.92  670.81   16.68  652.99   16.45  693.20   16.95
  682.01   16.82  740.05   17.52  706.43   20.87  728.00   21.18  718.75   21.05
  738.48   21.34  748.96   21.49  796.42   22.16  844.51   22.82  831.56   22.64
  843.27   22.80  897.52   23.52  944.98   24.14  975.19   24.52  994.30   24.76
 1063.34   25.60 1089.23   25.91 1070.74   25.69 1062.11   25.59 1152.10   26.65
 1128.06   26.37 1129.91   26.39 1129.91   26.39 1161.35   26.76 1161.35   26.76
 1150.25   26.63 1097.86   26.01 1067.04   25.65 1050.39   25.45 1086.15   25.88
 1050.39   25.45 1035.60   25.27 1063.34   25.60 1082.45   25.83 1041.76   25.34
 1102.17   26.07 1084.30   25.85 1110.19   26.16 1155.19   26.68 1204.50   27.25
 1242.72   27.68 1305.59   28.37 1303.13   28.34 1443.06   29.83 1515.18   30.56
 1598.40   31.39 1661.27   32.00 1743.87   32.79 1811.68   33.42 1845.58   33.73
 1885.65   34.09 1921.77   27.80 1878.73   27.49 1905.28   27.68 1907.69   27.70
 1820.81   27.06 1794.43   32.28 1793.84   32.28 1642.86   30.89 1663.18   31.08
 1567.94   30.18 1538.91   29.89 1452.38   29.04 1377.47   28.28 1302.56   27.50
 1293.26   27.40 1203.83   26.44 1193.96   26.33 1103.37   25.31 1132.98   25.65
 1068.52   24.91 1055.75   24.76 1042.39   24.60 1034.84   24.51  991.87   24.00
 1005.81   24.17 1022.07   24.36 1056.33   24.77 1081.30   25.06 1052.26   24.72
 1123.11   25.54 1163.76   26.00 1148.08   25.82 1215.45   26.57 1242.16   26.86
 1344.95   27.95 1440.19   28.92 1495.93   29.47 1566.20   30.16 1535.42   29.86
 1589.43   30.38 1580.72   30.30 1616.14   30.64 1584.79   30.34 1566.78   30.16
 1592.33   30.41 1443.09   28.95 1470.96   29.23 1466.32   29.18 1352.50   28.03
 1315.91   27.64 1274.68   27.21 1184.67   26.23 1148.66   25.83 1053.43   24.73
 1048.09   20.10  975.23   19.39  929.36   18.93  941.70   19.05  920.95   23.03
  857.02   22.22  805.76   21.54  828.80   21.85  800.58   21.47  759.68   20.92
  776.39   21.15  722.82   20.40  772.35   21.09  732.61   20.54  749.89   20.78
  718.21   20.34  710.15   20.22  751.04   20.80  728.58   20.48  773.51   21.11
  763.71   20.97  780.42   21.20  801.73   21.49  816.70   21.69  833.98   21.92
  843.20   22.04  880.06   22.51  817.28   21.70  911.74   22.92  903.10   22.81
  990.64   23.89  984.31   23.81 1066.09   24.78 1075.31   24.89 1132.33   25.54
 1189.34   26.17 1282.07   27.17 1345.43   27.84 1378.26   28.17 1453.13   28.93
 1489.99   29.29 1537.80   29.76 1610.37   30.45 1738.23   31.64 1704.82   31.34
 1698.49   31.28 1760.12   31.84 1722.10   31.49 1734.77   31.61 1639.74   30.73
 1651.26   30.84 1610.37   30.45 1560.84   29.98 1539.93   25.00 1457.94   24.33
 1425.88   24.06 1351.60   23.42 1310.20   23.06 1260.27   22.62 1176.43   27.12
 1135.18   26.64 1116.42   26.42 1090.17   26.10 1090.17   26.10  984.53   24.81
  944.52   24.30  942.65   24.27  958.27   24.47  944.52   24.30  955.15   24.43
  965.78   24.57  934.52   24.17  962.65   24.53  982.03   24.78 1004.53   25.06
 1005.16   25.07 1038.29   25.48 1084.54   26.04 1092.67   26.13 1160.18   26.93
 1198.94   27.38 1216.44   27.58 1285.83   28.35 1276.45   28.25 1348.96   29.04
 1348.34   29.03 1352.71   29.08 1400.22   29.59 1359.59   29.15 1405.22   29.64
 1412.72   29.72 1369.59   29.26 1325.83   28.79 1335.83   28.90 1287.70   28.37
 1307.70   28.59 1265.20   28.12 1278.95   28.27 1201.44   27.40 1147.05   26.78
 1070.79   25.87 1100.17   26.22 1090.17   26.10 1115.80   26.41 1032.66   25.41
 1053.91   25.67 1075.17   25.92 1082.04   26.01 1093.30   26.14 1078.29   25.96
 1103.30   26.26 1092.05   26.13 1108.30   26.32 1151.89   39.79 1158.76   39.91
 1227.49   41.08 1271.48   41.81 1231.62   41.15 1224.74   41.03 1237.11   41.24
 1187.63   40.40 1253.61   41.51 1257.73   41.58 1194.50   40.52 1245.36   41.37
 1253.61   41.51 1171.13   40.12 1182.13   40.31 1110.65   39.07 1145.02   39.67
 1116.15   39.17 1018.56   37.42 1022.68   37.49  973.20   36.57  868.73   34.56
  900.34   35.18  900.34   35.18  830.24   33.78  816.49   33.50  828.87   33.75
  736.77   31.82  842.61   34.03  764.26   32.41  699.66   31.01  768.38   32.50
  710.65   31.25  767.01   32.47  765.64   32.44  718.90   31.44  738.14   31.85
  709.28   31.22  734.02   31.76  723.02   31.53  721.65   31.50  728.52   31.64
  821.99   33.61  776.63   32.67  786.25   32.87  831.62   33.81  797.25   33.10
  835.74   33.89  841.24   34.00  889.35   34.96  856.36   34.31  876.98   34.72
  821.99   33.61                                                                