                                                                                
BANK 1 2431 487 CONST  602.500    5.000 0 0 ESD                                 
  984.96   33.43  989.50   33.51 1029.22   34.17  947.52   32.79  955.46   32.93
 1023.55   34.08 1008.79   33.83  930.50   32.49  980.43   33.35  955.46   32.93
  997.45   33.64  927.09   32.43  973.62   33.24  962.27   33.04  989.50   33.51
  986.10   33.45  987.23   33.47  963.40   33.06  954.33   32.91  932.77   32.53
  954.33   32.91  992.91   33.57 1021.28   34.04  958.87   32.99  995.18   33.60
  973.62   33.24  929.36   32.47 1049.65   34.51 1041.70   34.38  903.26   32.02
 1079.15   34.99  972.48   33.22  963.40   33.06  991.77   33.55  955.46   32.93
  987.23   33.47  970.21   33.18  913.48   32.20  957.73   32.97  938.44   32.63
  913.48   32.20  965.67   33.10  945.25   32.75  972.48   33.22  999.72   33.68
  947.52   32.79  969.08   33.16  923.69   32.38  906.67   32.08  905.53   32.06
  970.21   33.18  958.87   32.99  954.08   23.22  982.34   23.56  941.64   23.07
  942.77   23.08  984.03   23.58  997.03   23.74  975.55   23.48  943.34   23.09
  957.47   23.26  947.29   23.14  954.08   23.22  979.51   23.53  967.08   23.38
  948.42   23.15  959.16   23.28  933.73   22.97  943.90   23.10  985.16   23.60
  951.25   23.19  961.99   23.32  943.34   23.09  926.95   22.89  972.16   23.44
  980.08   23.54  978.38   23.52  944.47   23.10  958.60   23.28  914.51   22.74
  969.34   23.41  912.25   22.71  917.34   22.77  932.03   22.95  924.12   22.85
  917.90   22.78  959.16   23.28  931.47   22.95  934.29   22.98  935.42   22.99
  915.08   22.74  969.34   23.41  935.99   23.00  931.47   22.95  907.73   22.65
  932.03   22.95  915.08   22.74  909.42   22.67  937.69   23.02  894.73   22.49
  968.77   23.40  891.90   22.45  903.21   22.59  929.21   22.92  908.86   22.66
  951.64   18.83  965.05   18.97  982.95   19.14  928.15   18.60  935.98   18.68
  934.12   18.66  909.14   18.41  926.66   18.59  947.54   22.93  970.30   23.21
  959.76   23.08  913.13   22.51  922.01   22.62  927.56   22.69  980.85   23.33
  955.32   23.03  966.42   23.16  960.31   23.09  930.89   22.73  984.73   23.38
  955.87   23.03  948.10   22.94  922.01   22.62  950.32   22.97  960.87   23.09
  893.70   22.27  930.34   22.72  931.45   22.74  935.89   22.79  949.21   22.95
  947.54   22.93  920.90   22.61  946.43   22.92  941.99   22.87  916.46   22.55
  934.78   22.78  941.44   22.86  956.98   23.05  939.77   22.84  945.32   22.91
  948.10   22.94  949.76   22.96  935.89   22.79  946.43   22.92  928.67   22.70
  894.25   22.28  931.45   22.74  951.43   22.98  848.74   21.71  925.34   22.66
  935.89   22.79  907.58   22.45  863.17   21.89  935.89   22.79  888.70   22.21
  928.88   18.57  909.94   18.38  950.42   18.79  908.45   18.37  939.65   18.68
  947.08   22.91  954.84   23.00  947.08   22.91  919.92   22.58  959.27   23.06
  921.58   22.60  963.15   23.10  962.04   23.09  977.56   23.28  949.29   22.94
  929.34   22.69  974.79   23.24  944.86   22.88  947.63   22.92  951.51   22.96
  968.69   23.17  963.15   23.10  921.03   22.59  924.36   22.63  904.41   22.39
  945.97   22.90  967.03   23.15  932.67   22.73  964.26   23.12  998.06   23.52
  953.17   22.98  972.57   23.22  947.08   22.91  920.48   22.59  894.98   22.27
  928.23   22.68  974.79   23.24  916.04   22.53  911.61   22.48  900.53   22.34
  916.04   22.53  968.69   23.17  922.14   22.61  965.36   23.13  964.26   23.12
  948.74   22.93  919.37   22.57  923.80   22.63  954.84   23.00  931.01   22.71
  910.50   22.46  921.58   22.60  948.19   22.92  909.95   22.46  888.89   22.19
  929.30   18.53  940.76   18.65  938.92   18.63  937.07   22.87  939.31   22.90
  953.82   23.07  958.28   23.13  964.98   23.21 1004.05   23.67  959.40   23.14
 1011.30   23.76  946.56   22.98  958.84   23.13  991.21   23.52  982.84   23.42
  983.40   23.43  997.35   23.59 1005.72   23.69 1013.53   23.78  994.56   23.56
  975.58   23.33 1038.65   24.08 1083.86   24.60 1083.86   24.60 1174.83   25.61
 1131.85   25.13 1199.94   25.88 1299.29   26.93 1347.29   27.42 1403.10   27.98
 1555.46   29.46 1700.01   30.80 1882.52   32.41 2142.60   34.58 2428.91   36.82
 2858.66   39.94 3362.63   43.32 3747.17   45.73 4139.53   48.07 4278.50   48.87
 4145.11   48.10 3691.92   45.39 3125.44   41.77 2443.98   36.93 1901.49   32.58
 1487.37   28.81 1206.08   25.94 1117.90   24.98 1055.39   24.27 1005.16   23.69
  957.72   23.12  963.30   23.19  959.96   23.15  957.16   23.11  996.63   19.61
  966.16   19.30  999.71   19.64  975.03   19.39  990.16   24.12  986.63   24.08
  952.55   23.66  988.39   24.10  988.39   24.10 1065.37   25.02 1018.36   24.46
 1023.06   24.52 1163.51   26.15 1137.06   25.85 1164.68   26.16 1204.05   26.60
 1292.20   27.56 1397.97   28.66 1529.60   29.98 1697.66   31.58 1905.69   33.46
 2230.64   36.20 2601.44   39.10 3126.78   42.86 3552.81   45.69 3931.25   48.06
 4265.61   50.07 4178.05   49.55 3775.53   47.10 3355.96   44.41 2788.89   40.48
 2178.35   35.78 1669.46   31.32 1363.89   28.31 1225.80   26.84 1097.69   25.40
 1088.88   25.30 1064.79   25.01  977.23   23.96 1003.67   24.29  990.74   24.13
  990.74   24.13 1017.19   24.45  994.27   24.17  949.02   23.62  914.94   23.19
  937.27   23.47  935.51   23.45  949.61   23.62  934.33   23.43  957.84   23.72
  913.18   23.16  951.37   23.64  966.38   19.58  926.31   19.17  949.72   19.41
  941.39   19.32  918.77   19.09  964.40   19.56  987.65   24.69  966.05   24.42
  993.21   24.76  898.77   23.55  928.40   23.94  955.56   24.29  917.90   23.80
  921.60   23.85  966.05   24.42  964.20   24.40 1020.99   25.10  992.59   24.75
 1088.27   25.92 1024.07   25.14 1051.23   25.47 1106.17   26.13 1163.58   26.80
 1146.91   26.61 1327.16   28.62 1377.78   29.16 1488.89   30.32 1554.32   30.98
 1657.41   31.99 1700.00   32.39 1711.73   32.51 1568.52   31.12 1429.63   29.71
 1244.44   27.72 1149.38   26.64 1070.37   25.70 1022.84   25.13 1021.60   25.11
  951.85   24.24  920.99   23.84  946.30   24.17  923.46   23.88  932.72   23.99
  930.86   23.97  940.12   24.09  955.56   24.29  946.91   24.18  896.91   23.53
  917.90   23.80  890.74   23.45  919.75   23.83  900.00   23.57  933.95   24.01
  929.01   23.95  920.37   19.74  920.80   19.75  953.41   20.10  921.64   19.76
  939.43   19.95  939.86   19.95  970.51   24.94  890.38   23.89  956.41   24.76
  955.13   24.74  941.67   24.57  941.03   24.56  947.44   24.64  943.59   24.59
  902.56   24.05  946.15   24.63  957.05   24.77  941.03   24.56  916.67   24.24
  876.28   23.70  916.03   24.23  917.95   24.26  937.82   24.52  914.10   24.21
  939.10   24.54  875.64   23.69  948.08   24.65  925.00   24.35  903.21   24.06
  935.90   24.49  901.28   24.04  903.85   24.07  892.95   23.92  901.92   24.04
  914.10   24.21  918.59   24.27  883.33   23.80  885.90   23.83  894.87   23.95
  917.95   24.26  921.15   24.30  888.46   23.86  904.49   24.08  905.13   24.09
  889.74   23.88  875.00   23.68  907.69   24.12  893.59   23.93  905.13   24.09
  917.31   24.25  883.97   23.80  867.31   23.58  878.85   23.74  883.97   23.80
  887.82   23.86  925.62   19.54  884.35   19.10  888.89   19.15  902.09   19.29
  953.09   24.37  921.93   23.97  948.11   24.31  921.30   23.96  896.99   23.65
  926.29   24.03  918.81   23.93  935.02   24.14  902.60   23.72  925.67   24.02
  914.45   23.87  893.25   23.60  924.42   24.00  870.19   23.29  893.25   23.60
  883.90   23.47  965.56   24.53  893.25   23.60  877.05   23.38  882.03   23.45
  928.78   24.06  854.60   23.08  918.19   23.92  894.50   23.61  892.01   23.58
  935.02   24.14  909.46   23.81  897.62   23.65  883.90   23.47  883.28   23.46
  911.95   23.84  916.32   23.90  875.18   23.36  888.27   23.53  877.67   23.39
  911.95   23.84  914.45   23.87  859.59   23.15  848.37   23.00  941.25   24.22
  920.68   23.96  883.90   23.47  884.53   23.48  917.56   23.92  870.81   23.30
  878.29   23.40  903.85   23.74  879.54   23.41  905.10   23.75  933.86   19.45
  926.16   19.37  890.51   18.99  882.00   18.90  885.65   18.94  882.33   22.60
  926.33   23.16  908.38   22.93  928.06   23.18  897.96   22.80  875.96   22.52
  895.64   22.77  906.64   22.91  908.38   22.93  857.43   22.28  895.06   22.76
  937.91   23.30  880.01   22.57  886.38   22.65  917.64   23.05  927.49   23.17
  901.43   22.84  899.12   22.82  912.43   22.98  884.06   22.62  895.06   22.76
  872.49   22.48  908.38   22.93  889.27   22.69  880.01   22.57  904.91   22.89
  902.59   22.86  895.06   22.76  903.75   22.87  914.17   23.01  888.70   22.68
  919.96   23.08  889.27   22.69  983.07   23.86  995.80   24.01  963.38   23.62
 1027.07   24.38 1140.54   25.70 1168.33   26.01 1203.07   26.39 1284.70   27.27
 1249.38   26.89 1243.60   26.83 1177.02   26.10 1137.65   25.66 1058.33   24.75
  964.54   23.63  951.80   23.47  879.43   22.56  899.12   22.82  881.08   18.54
  893.96   18.68  870.16   18.43  926.35   19.01  930.64   19.06  913.80   23.19
  910.27   23.14  880.85   22.77  957.34   23.73  907.33   23.11  863.78   22.54
  923.21   23.31  873.20   22.67  911.44   23.16  842.01   22.26  901.44   23.03
  921.45   23.28  915.56   23.21  888.50   22.86  854.37   22.42  857.31   22.46
  893.20   22.93  922.04   23.29  920.86   23.28  881.44   22.77  919.09   23.26
  893.79   22.93  864.37   22.55  908.50   23.12  900.26   23.02  877.32   22.72
  927.92   23.37  917.92   23.24  919.09   23.26  957.34   23.73  955.58   23.71
  926.15   23.34  974.99   23.95  914.97   23.20  958.52   23.75  993.82   24.18
  971.46   23.91  988.53   24.12  953.22   23.68  972.64   23.92  933.22   23.43
  924.39   23.32  909.68   23.14  945.57   23.59  926.15   23.34  901.44   23.03
  862.61   22.53  886.14   22.83  869.85   18.38  906.76   18.77  907.54   18.78
  935.12   19.06  922.69   18.93  897.08   22.90  938.60   23.43  922.81   23.23
  911.11   23.08  932.75   23.36  872.51   22.59  980.12   23.94  930.41   23.33
  906.43   23.02  967.84   23.79  915.20   23.13  947.37   23.54  933.92   23.37
  922.81   23.23  885.38   22.75  918.13   23.17  929.82   23.32  900.58   22.95
  900.00   22.94  956.73   23.65  894.15   22.87  926.90   23.28  935.09   23.38
  978.95   23.93  919.88   23.19  968.42   23.80  967.84   23.79  920.47   23.20
  957.89   23.67  885.38   22.75  943.27   23.49  942.69   23.48  965.50   23.76
  952.63   23.60 1005.85   24.25 1041.52   24.68 1043.27   24.70 1073.68   25.06
 1143.86   25.86 1198.25   26.47 1190.06   26.38 1244.44   26.98 1229.82   26.82
 1206.43   26.56 1242.11   26.95 1215.20   26.66 1263.74   27.19 1232.75   26.85
 1337.43   27.97 1448.26   23.79 1531.91   24.47 1708.59   25.84 1897.00   27.23
 1907.55   27.31 1919.28   27.39 1871.43   32.96 1747.21   31.85 1588.74   30.37
 1414.60   28.66 1277.61   27.23 1153.39   25.87 1149.33   25.83 1159.19   25.94
 1142.36   25.75 1134.81   25.67 1112.18   25.41 1146.42   25.80 1167.32   26.03
 1135.39   25.67 1253.23   26.97 1301.99   27.49 1307.21   27.55 1436.08   28.87
 1471.48   29.23 1562.62   30.12 1718.76   31.59 1887.10   33.10 2115.22   35.04
 2392.69   37.27 2981.28   41.60 3562.91   45.48 4499.20   51.10 5818.60   58.12
 7756.20   67.1010042.66   76.3512469.60   85.0814684.66   92.3315851.98   95.92
15888.55   96.0414707.88   92.4012232.19   84.26 9498.77   74.25 6981.28   63.66
 4914.24   53.41 3634.89   45.93 2804.82   40.35 2320.71   36.70 1998.55   34.06
 1803.51   32.36 1658.98   31.03 1598.03   30.46 1556.81   30.06 1612.06   25.80
 1617.01   25.84 1787.14   27.17 1981.62   28.61 2308.66   30.88 2544.85   32.42
 2761.03   42.24 2958.80   43.73 2932.95   43.54 2714.49   41.89 2431.41   39.64
 2000.97   35.96 1731.46   33.45 1547.91   31.63 1281.63   28.78 1194.38   27.78
 1091.61   26.56 1055.42   26.12 1026.34   25.76 1023.75   25.72 1022.46   25.71
 1045.73   26.00 1013.41   25.59  960.41   24.91  989.50   25.29  968.17   25.01
  947.49   24.75  998.55   25.40 1000.48   25.43  971.40   25.06  988.85   25.28
 1048.96   26.04 1030.86   25.81 1030.86   25.81 1072.87   26.33 1046.37   26.01
 1032.15   25.83 1038.62   25.91  996.61   25.38  995.31   25.36  989.50   25.29
  919.05   24.37  933.27   24.56  946.19   24.73  943.61   24.70  944.90   24.71
  862.17   23.61  898.37   24.10  855.07   23.51  866.70   23.67  907.42   24.22
  851.19   23.45  859.59   23.57  855.71   23.52  864.11   23.63  920.60   19.64
  914.31   19.57  922.69   19.66  903.00   19.45  887.91   19.29  922.48   24.49
  906.87   24.28  902.32   24.22  949.13   24.84  886.07   24.00  855.52   23.58
  913.38   24.37  912.73   24.36  903.62   24.24  905.57   24.26  917.28   24.42
  920.53   24.46  899.07   24.18  898.42   24.17  912.73   24.36  910.78   24.33
  910.78   24.33  880.87   23.93  853.57   23.56  886.07   24.00  906.87   24.28
  895.17   24.12  915.98   24.40  895.82   24.13  887.37   24.02  904.27   24.25
  830.16   23.23  886.07   24.00  906.87   24.28  888.02   24.03  870.47   23.79
  873.72   23.83  863.97   23.70  901.02   24.20  891.27   24.07  912.73   24.36
  889.97   24.05  831.46   23.25  854.22   23.57  897.77   24.16  867.87   23.75
  836.67   23.32  869.82   23.78  845.77   23.45  893.22   24.10  901.02   24.20
  895.17   24.12  883.47   23.97  884.12   23.97  901.42   19.62  896.29   19.57
  901.85   19.63  890.31   19.50  890.51   23.29  916.70   23.63  866.76   22.98
  869.80   23.02  863.10   22.93  888.69   23.27  923.40   23.72  917.31   23.64
  884.42   23.21  905.13   23.48  875.29   23.09  888.08   23.26  925.23   23.74
  884.42   23.21  906.96   23.50  885.64   23.23  883.81   23.20  864.93   22.95
  899.04   23.40  867.98   22.99  921.58   23.69  854.58   22.82  934.37   23.86
  886.86   23.24  922.80   23.71  924.01   23.72  885.64   23.23  849.09   22.74
  917.92   23.65  887.47   23.25  895.39   23.35  937.41   23.90  923.40   23.72
  928.28   23.78  970.92   24.32  971.52   24.33  994.06   24.61 1072.03   25.55
 1132.94   26.27 1306.53   28.21 1410.69   29.31 1524.59   30.47 1624.49   31.46
 1741.43   32.57 1689.66   32.08 1664.08   31.84 1466.73   29.89 1347.34   28.65
 1271.20   27.83 1168.27   26.68 1094.91   20.93 1010.50   20.11  976.90   19.77
 1000.10   20.00  960.50   19.60 1009.94   24.66  984.04   24.34 1053.90   25.19
 1009.33   24.65  981.03   24.31 1021.38   24.80 1087.02   25.59 1138.21   26.18
 1236.37   27.29 1315.27   28.14 1474.86   29.80 1702.50   32.02 2104.79   35.60
 2358.93   37.69 2834.09   41.31 3090.03   43.14 3227.94   44.09 3218.31   44.02
 2959.95   42.22 2493.83   38.75 2060.83   35.23 1674.19   31.75 1421.86   29.26
 1224.33   27.15 1150.86   26.33 1044.87   25.08 1028.61   24.89  953.33   23.96
  966.58   24.13  970.19   24.17  935.86   23.74  871.42   22.91  903.94   23.33
  950.32   23.92  882.26   23.05  906.96   23.37  902.74   23.32  912.38   23.44
  902.74   23.32  893.71   23.20  893.71   23.20  869.02   22.88  883.47   23.07
  874.44   22.95  893.71   23.20  897.92   23.25  910.57   23.42  906.35   23.36
  890.09   23.15  943.01   19.66  932.76   19.56  916.36   19.38  937.68   19.61
  945.88   19.69  959.36   24.21  969.75   24.34  983.20   24.51 1010.69   24.85
  980.75   24.48 1000.31   24.72 1053.47   25.37 1054.08   25.38 1121.30   26.18
 1096.85   25.89 1129.24   26.27 1183.62   26.89 1277.12   27.94 1246.56   27.60
 1439.66   29.66 1496.49   30.24 1615.64   31.42 1832.57   33.46 1951.12   34.53
 2326.92   37.71 2664.22   40.35 3300.34   44.91 3988.39   49.37 4556.68   52.77
 4999.69   55.27 5201.96   56.38 5030.86   55.45 4463.18   52.22 3863.12   48.59
 3072.41   43.33 2592.12   39.80 2061.72   35.49 1662.08   31.87 1442.10   29.69
 1337.00   28.58 1217.23   27.27 1095.63   25.87 1115.18   26.10 1041.86   25.23
 1010.08   24.84  987.47   24.56  978.31   24.45 1025.97   25.04  942.87   24.00
  975.86   24.42  926.98   23.80  918.42   23.69  942.87   24.00  894.59   23.38
  940.60   19.65  928.29   19.52  909.82   19.32  945.52   19.70  918.85   19.42
  981.79   24.94  957.09   24.62  949.49   24.52  943.78   24.45 1034.36   25.60
 1048.30   25.77 1073.63   26.08 1176.88   27.30 1228.19   27.89 1323.20   28.95
 1568.33   31.52 1739.35   33.19 2038.32   35.93 2282.19   38.02 2439.90   39.31
 2426.60   39.21 2362.63   38.68 2124.47   36.68 1864.13   34.36 1514.49   30.97
 1321.93   28.94 1265.56   28.31 1095.17   26.34 1074.27   26.09 1010.93   25.30
  968.49   24.77  934.92   24.33  922.25   24.17  927.32   24.24  900.71   23.89
  928.58   24.25  927.32   24.24  914.65   24.07  903.25   23.92  959.62   24.65
  919.08   24.13 1022.33   25.45 1040.70   25.67 1021.69   25.44 1077.43   26.12
 1047.66   25.76 1017.26   25.38 1038.16   25.64 1000.79   25.18  879.81   23.61
  910.21   24.01  853.21   23.25  872.84   23.51  856.37   23.29  888.17   19.59
  855.32   19.23  862.67   19.31  851.86   19.19  878.23   19.48  898.23   24.19
  878.03   23.91  868.26   23.78  856.54   23.62  872.82   23.84  901.48   24.23
  870.87   23.82  888.45   24.06  900.83   24.22  879.34   23.93  870.87   23.82
  862.40   23.70  855.24   23.60  885.85   24.02  870.87   23.82  899.53   24.21
  851.98   23.56  860.45   23.67  878.68   23.92  865.66   23.75  877.38   23.91
  866.96   23.76  918.42   24.46  846.12   23.48  903.44   24.26  896.92   24.17
  883.24   23.99  867.61   23.77  879.99   23.94  844.81   23.46  879.34   23.93
  838.95   23.38  886.50   24.03  877.38   23.91  858.49   23.65  894.97   24.14
  879.99   23.94  934.05   24.67  913.86   24.40  980.95   25.28 1068.88   26.39
 1061.72   26.30 1101.45   26.79 1158.12   27.47 1128.81   27.12 1072.14   26.43
 1057.81   26.25  990.07   25.39  932.75   24.65  954.88   20.18  894.29   19.53
  937.81   20.00  904.53   19.65  874.67   19.32  899.25   24.14  866.86   23.70
  900.55   24.15  865.57   23.68  857.14   23.57  951.73   24.83  967.28   25.03
  901.20   24.16  929.71   24.54  897.96   24.12  851.96   23.49  898.61   24.13
  922.58   24.45  914.16   24.34  872.69   23.78  822.16   23.08  897.31   24.11
  896.02   24.09  866.21   23.69  983.48   25.24  954.32   24.87  951.73   24.83
 1037.90   25.93 1013.93   25.63 1009.39   25.57 1073.53   26.37 1203.11   27.92
 1271.14   28.70 1370.91   29.80 1462.91   30.79 1563.33   31.83 1620.99   32.41
 1583.41   32.03 1540.65   31.59 1482.35   30.99 1419.50   30.33 1317.14   29.21
 1201.81   27.90 1157.76   27.39 1199.87   27.88 1118.24   26.92 1135.73   27.13
 1162.94   27.45 1117.59   26.91 1181.73   27.67 1160.35   27.42 1188.21   27.75
 1270.49   28.69 1370.91   29.80 1454.17   24.62 1562.92   25.52 1749.58   27.00
 1890.42   28.07 2093.75   29.54 2255.86   36.81 2448.05   38.34 2520.12   38.90
 2807.21   41.06 2967.57   42.22 3320.12   44.65 3676.28   46.99 4130.33   49.81
 4542.34   52.23 4740.54   53.36 4606.01   52.60 4371.17   51.24 3990.99   48.96
 3511.71   45.93 2842.64   41.32 2409.01   38.04 1974.17   34.43 1798.20   32.86
 1548.95   30.50 1380.78   28.80 1243.24   27.33 1225.23   27.13 1170.57   26.52
 1091.29   25.60 1085.89   25.54 1043.84   25.04 1048.65   25.10  944.14   23.81
  985.59   24.33  966.37   24.09  974.77   24.20  950.15   23.89  905.71   23.32
  943.54   23.81  912.91   23.42  940.54   23.77  900.30   23.25  867.87   22.83
  889.49   23.11  946.55   23.84  915.92   23.45  950.15   23.89  971.17   24.15
  941.74   23.78 1020.42   24.76 1076.88   25.43 1036.64   24.95 1110.51   25.83
 1085.46   20.97 1113.81   21.24 1100.85   21.12 1090.32   21.01 1050.63   20.63
  990.68   20.03  998.49   24.52  989.46   24.41  947.91   23.89  878.65   23.00
  938.87   23.78  944.29   23.85  919.60   23.53  947.91   23.89  915.39   23.48
  944.90   23.85  881.06   23.03  910.57   23.42  922.61   23.57  933.45   23.71
  976.21   24.25 1044.87   25.08 1047.88   25.12 1116.53   25.93 1258.66   27.53
 1308.64   28.07 1513.40   30.19 1712.74   32.12 1930.14   34.09 2154.77   36.02
 2390.24   37.94 2555.86   39.23 2563.69   39.29 2436.01   38.30 2309.55   37.29
 2063.23   35.25 1825.35   33.16 1518.22   30.24 1445.35   29.50 1204.46   26.93
 1152.06   26.34 1083.41   25.54 1046.07   25.10  938.27   23.77  911.77   23.43
  949.11   23.91  909.36   23.40  941.28   23.81  890.09   23.15  890.70   23.16
  887.08   23.11  855.16   22.69  873.23   22.93  882.87   23.06  835.72   18.44
  852.00   18.62  867.87   18.79  848.34   18.58  856.88   18.67  854.85   18.65
  883.68   23.49  844.34   22.96  839.34   22.89  856.21   23.12  826.23   22.72
  881.81   23.47  876.19   23.39  862.45   23.21  839.97   22.90  880.56   23.45
  833.72   22.82  856.21   23.12  848.71   23.02  865.57   23.25  839.34   22.89
  877.44   23.41  851.21   23.06  866.20   23.26  841.22   22.92  853.71   23.09
  858.70   23.16  840.59   22.91  875.57   23.38  798.75   22.33  909.91   23.84
  894.93   23.64  871.82   23.33  888.06   23.55  903.67   23.76  911.16   23.85
  901.17   23.72  908.67   23.82  860.58   23.18  901.17   23.72  898.67   23.69
  916.78   23.93  953.01   24.40  940.52   24.24  945.51   24.30  952.38   24.39
  979.86   24.74  968.62   24.59 1047.31   25.57 1015.46   25.18 1052.30   25.64
 1099.14   26.20 1116.00   26.40 1215.93   27.56 1258.48   23.14 1330.78   23.79
 1415.84   24.54 1565.12   25.80 1681.66   26.74 1742.45   33.56 1930.52   35.32
 2114.07   36.96 2272.42   38.32 2492.16   40.13 2734.53   42.04 3045.40   44.37
 3331.72   46.40 3392.47   46.83 3439.65   47.15 3294.88   46.15 2954.92   43.70
 2647.92   41.37 2295.69   38.52 1979.64   35.77 1719.18   33.33 1489.74   31.03
 1302.31   29.01 1211.18   27.98 1154.31   27.31 1054.77   26.11 1024.40   25.73
  972.69   25.07  975.93   25.11  952.66   24.81  979.16   25.16  924.87   24.45
  910.00   24.25  886.09   23.93  866.70   23.67  895.78   24.06  904.83   24.18
  852.48   23.47  861.53   23.60  900.31   24.12  828.57   23.14  911.29   24.27
  837.62   23.27  861.53   23.60  892.55   24.02  819.52   23.01  825.98   23.10
  833.09   23.20  846.02   23.38  886.09   23.93  901.60   24.14  858.94   23.56
  846.02   23.38  831.80   23.19  881.11   19.88  887.84   19.96  918.80   20.30
  949.30   20.64  997.31   21.15  988.30   26.27 1005.76   26.50 1002.97   26.47
 1062.34   27.24 1088.18   27.57 1178.28   28.69 1186.66   28.79 1344.51   30.64
 1400.38   31.27 1589.66   33.32 1809.67   35.55 1964.73   37.04 2346.78   40.49
 2529.77   42.03 2711.37   43.52 2744.89   43.79 2687.62   43.33 2468.31   41.52
 2245.50   39.60 1986.38   37.25 1783.13   35.29 1575.00   33.17 1434.61   31.65
 1362.67   30.85 1187.36   28.80 1083.99   27.52 1078.40   27.44 1042.78   26.99
  965.95   25.97  964.55   25.96  973.63   26.08  958.97   25.88  906.58   25.16
  873.06   24.69  959.66   25.89  913.57   25.26  920.55   25.36  905.19   25.14
  883.53   24.84  889.12   24.92  932.43   25.52  947.79   25.73  944.30   25.68
  960.36   25.90  905.88   25.15  940.81   25.63  974.33   26.09  978.52   26.14
  964.55   25.96  958.27   25.87  994.72   20.91  985.49   20.82 1011.87   21.09
 1029.90   21.28 1124.67   27.17 1007.22   25.71 1150.26   27.47 1129.27   27.22
 1149.61   27.47 1239.50   28.52 1285.43   29.04 1368.11   29.96 1465.22   31.01
 1541.99   31.81 1677.82   33.18 1721.78   33.61 1800.52   34.37 1837.27   34.72
 1864.17   34.97 1691.60   33.32 1637.14   32.78 1610.24   32.51 1491.47   31.28
 1416.01   30.48 1484.91   31.21 1399.61   30.30 1404.86   30.36 1448.16   30.83
 1578.08   32.18 1593.83   32.34 1698.16   33.38 1904.86   35.35 2122.70   37.32
 2370.08   39.44 2700.79   42.10 3136.48   45.37 3450.79   47.58 3783.46   49.83
 3914.04   50.68 4026.25   51.40 3795.93   49.91 3521.00   48.07 3325.46   46.71
 2957.35   44.05 2670.60   41.86 2316.93   38.99 2164.04   37.68 2034.12   36.53
 1938.32   35.66 1940.29   35.68 1893.70   35.25 1986.22   36.10 1920.60   35.50
 1895.12   28.54 1765.31   27.55 1701.70   27.05 1637.22   26.53 1504.84   25.43
 1335.16   28.49 1327.86   28.41 1215.38   27.18 1188.63   26.88 1085.88   25.69
 1079.80   25.62 1039.06   25.13  993.46   24.58 1050.01   25.27 1017.18   24.87
 1073.72   25.55 1076.76   25.59 1095.00   25.80 1164.31   26.61 1246.39   27.53
 1203.83   27.05 1270.71   27.80 1215.38   27.18 1238.49   27.44 1200.79   27.02
 1115.67   26.04 1109.59   25.97 1066.42   25.46  978.87   24.40  916.25   23.60
  940.57   23.91  894.36   23.32  907.74   23.49  861.53   22.89  902.87   23.43
  871.87   23.02  868.83   22.98  877.34   23.10  856.67   22.82  812.89   22.23
  817.75   22.30  838.43   22.58  810.46   22.20  841.47   22.62  832.95   22.50
  845.11   22.67  849.98   22.73  846.94   22.69  803.77   22.11  823.23   22.37
  809.24   22.18  845.72   22.68  819.58   22.32  829.31   22.45  852.20   18.57
  861.51   18.67  858.27   18.64  881.74   18.89  857.46   18.63  914.92   19.24
  920.20   23.77  884.59   23.30  922.04   23.79  903.01   23.54  890.12   23.38
  888.89   23.36  905.46   23.58  906.08   23.58  883.98   23.29  870.47   23.12
  858.81   22.96  861.88   23.00  870.47   23.12  876.61   23.20  861.88   23.00
  904.85   23.57  894.41   23.43  825.05   22.50  879.68   23.24  891.34   23.39
  905.46   23.58  940.45   24.03  929.40   23.89  924.49   23.82  964.40   24.33
  963.17   24.32 1081.65   25.77 1152.85   26.60 1173.73   26.84 1190.30   27.03
 1302.03   28.27 1292.20   28.16 1263.35   27.85 1247.39   27.67 1169.43   26.79
 1158.38   26.67 1052.18   25.41 1084.71   25.80  998.77   24.76 1004.30   24.83
  935.54   23.96  895.64   23.45  922.65   23.80  920.20   23.77  900.55   23.51
  924.49   23.82  863.11   23.02  957.64   24.25  920.20   23.77  838.97   18.38
  913.04   19.17  874.40   18.76  870.37   18.72  851.03   22.50  849.24   22.47
  825.45   22.16  807.02   21.91  792.15   21.70  802.26   21.84  755.28   21.19
  807.02   21.91  818.91   22.07  787.99   21.65  818.91   22.07  787.99   21.65
  790.96   21.69  813.56   22.00  811.18   21.96  795.72   21.75  771.34   21.42
  765.98   21.34  812.96   21.99  805.83   21.89  804.64   21.88  782.04   21.57
  777.28   21.50  805.83   21.89  752.90   21.16  767.77   21.37  798.10   21.79
  815.94   22.03  771.93   21.43  805.23   21.88  800.48   21.82  825.45   22.16
  833.18   22.26  806.42   21.90  802.26   21.84  817.13   22.04  823.67   22.13
  799.29   21.80  825.45   22.16  816.53   22.04  829.02   22.20  829.62   22.21
  835.56   22.29  856.38   22.57  876.00   22.82  896.22   23.09  855.19   22.55
  907.52   23.23  923.58   23.44  930.12   23.52  946.70   19.61  951.57   19.66
  994.21   20.09 1037.67   20.53 1072.29   25.60 1118.14   26.15 1137.70   26.37
 1268.53   27.85 1381.02   29.06 1377.96   29.02 1477.61   30.06 1601.10   31.29
 1751.49   32.72 1801.62   33.19 1911.66   34.19 1986.86   34.85 1955.07   34.57
 1999.08   34.96 1896.99   34.05 1750.88   32.72 1632.28   31.59 1521.63   30.50
 1425.03   29.52 1270.37   27.87 1161.55   26.65 1149.32   26.51 1073.51   25.62
 1006.88   24.81  959.19   24.22  954.30   24.15  926.79   23.80  900.50   23.46
  895.00   23.39  899.28   23.45  877.88   23.17  867.49   23.03  887.05   23.29
  898.67   23.44  873.61   23.11  876.05   23.14  899.28   23.45  891.33   23.34
  895.61   23.40  900.50   23.46  965.31   24.29  920.07   23.72  990.37   24.61
 1045.39   25.28 1058.84   25.44 1070.46   25.58 1096.13   25.89 1046.61   25.30
 1115.70   26.12 1101.85   21.13 1079.56   20.92 1050.37   20.64 1011.45   20.25
  987.53   20.01  924.29   19.36  944.94   24.21  923.22   23.93  915.77   23.84
  920.74   23.90  922.60   23.93  892.20   23.53  966.03   24.48  931.29   24.04
  911.43   23.78  989.61   24.78  973.48   24.58  983.40   24.70 1053.51   25.57
 1057.24   25.61 1031.18   25.29 1061.58   25.66 1013.18   25.07  980.92   24.67
  980.92   24.67  943.69   24.20  917.02   23.85  929.42   24.01  903.37   23.67
  842.56   22.86  848.77   22.95  886.61   23.45  873.58   23.28  848.77   22.95
  847.53   22.93  835.12   22.76  833.88   22.75  837.60   22.80  812.16   22.45
  832.64   22.73  860.56   23.11  817.12   22.52  798.51   22.26  854.35   23.02
  799.13   22.27  838.22   22.80  860.56   23.11  835.12   22.76  871.72   23.26
  887.85   23.47  897.16   23.59  904.61   23.69  867.38   23.20  925.70   23.97
  975.92   20.00  974.69   19.99 1051.75   20.76 1075.93   21.00 1107.90   21.31
 1168.15   21.88 1195.90   26.85 1212.78   27.04 1288.73   27.87 1321.28   28.22
 1365.28   28.69 1390.60   28.95 1417.72   29.23 1457.50   29.64 1393.61   28.98
 1443.04   29.49 1429.78   29.36 1361.66   28.65 1269.44   27.66 1230.26   27.23
 1189.27   26.77 1138.64   26.20 1101.27   25.76 1060.88   25.29 1011.45   24.69
  985.53   24.37 1009.04   24.66 1046.41   25.11 1004.82   24.61 1014.47   24.73
  974.08   24.23 1052.44   25.19  983.73   24.35  982.52   24.34 1028.93   24.90
 1025.92   24.87 1060.88   25.29 1077.15   25.48 1066.91   25.36 1025.32   24.86
  995.18   24.49  984.33   24.36  963.83   24.10  926.46   23.63  895.12   23.23
  906.57   23.38  952.38   23.96  908.38   23.40  880.65   23.04  910.79   23.43
  909.58   23.42  917.42   23.52  924.05   23.60  930.09   19.19  976.03   19.66
  973.26   19.63  976.83   19.67 1036.24   20.26 1043.77   20.33 1120.17   25.72
 1179.21   26.39 1206.38   26.69 1333.92   28.07 1374.08   28.48 1503.40   29.80
 1620.31   30.93 1751.99   32.16 1843.52   32.99 2024.21   34.57 2134.63   35.50
 2301.74   36.87 2327.72   37.07 2417.48   37.78 2361.97   37.35 2262.18   36.55
 2112.78   35.32 2033.07   34.65 1912.02   33.60 1713.61   31.81 1578.98   30.53
 1466.78   29.43 1382.34   28.57 1258.34   27.26 1207.56   26.70 1147.33   26.03
 1049.31   24.89 1023.91   24.59  990.85   24.19  931.21   23.45  931.21   23.45
  901.68   23.07  875.70   22.74  897.55   23.02  833.78   22.19  882.20   22.82
  866.25   22.62  854.44   22.46  835.55   22.21  843.81   22.32  872.16   22.69
  855.03   22.47  790.08   21.60  812.52   21.90  821.38   22.02  840.86   22.28
  816.06   21.95  813.11   21.91  814.88   21.94  805.60   17.82  831.21   18.10
  784.71   17.59  840.67   18.20  805.99   17.82  844.81   22.23  830.77   22.05
  838.96   22.15  827.26   22.00  820.83   21.91  806.79   21.73  805.62   21.71
  811.47   21.79  809.71   21.77  859.44   22.42  816.15   21.85  830.77   22.05
  816.73   21.86  849.50   22.29  829.02   22.02  800.94   21.65  834.87   22.10
  835.45   22.11  810.30   21.77  871.14   22.58  843.06   22.21  900.39   22.95
  816.15   21.85  862.37   22.46  876.99   22.65  831.94   22.06  888.11   22.79
  943.10   23.49  923.21   23.24  896.88   22.91  960.07   23.70 1001.61   24.21
 1050.75   24.79 1061.28   24.92 1085.86   25.20 1155.48   26.00 1236.21   26.89
 1291.21   27.48 1394.18   28.56 1480.77   29.43 1552.14   30.13 1625.27   30.84
 1761.01   32.10 1904.34   33.38 1986.25   34.09 1957.58   33.84 1975.14   33.99
 1966.36   33.92 1939.14   27.77 1850.84   27.13 1799.12   26.75 1708.83   26.07
 1617.34   25.36 1515.32   30.32 1488.02   30.04 1370.94   28.84 1326.66   28.37
 1198.06   26.96 1141.04   26.31 1129.51   26.18 1127.69   26.15 1074.31   25.53
 1046.41   25.19 1076.74   25.56 1052.47   25.27 1067.03   25.44 1073.70   25.52
 1108.28   25.93 1048.83   25.22 1082.80   25.63 1040.95   25.13 1050.65   25.25
  971.79   24.28  997.27   24.60  976.65   24.34  937.22   23.84  929.33   23.74
  939.64   23.87  881.41   23.12  899.61   23.36  880.80   23.12  835.30   22.51
  883.23   23.15  818.93   22.29  926.30   23.70  889.90   23.23  912.95   23.53
  838.94   22.56  862.60   22.87  895.36   23.31  866.24   22.92  859.57   22.83
  839.55   22.57  829.24   22.43  832.88   22.48  852.90   22.75  854.11   22.76
  909.92   23.49  896.57   23.32  867.46   22.94  920.23   23.63  945.10   23.94
  889.90   23.23  962.09   19.67 1001.91   20.07 1044.54   20.50 1082.76   20.87
 1054.20   20.59 1115.37   26.06 1117.81   26.09 1244.44   27.53 1265.14   27.75
 1347.95   28.65 1439.27   29.60 1466.06   29.88 1536.07   30.58 1601.83   31.23
 1578.08   31.00 1609.74   31.31 1606.09   31.27 1607.91   31.29 1533.03   30.55
 1478.23   30.00 1461.19   29.83 1453.27   29.75 1277.93   27.89 1267.58   27.78
 1175.65   26.75 1156.77   26.54 1178.08   26.78 1041.10   25.18 1030.75   25.05
  988.74   24.54  987.52   24.52  995.43   24.62  978.39   24.41  919.33   23.66
  971.08   24.32  993.00   24.59  921.16   23.68  916.89   23.63  917.50   23.63
  952.21   24.08  952.82   24.09  982.04   24.45  993.00   24.59 1064.23   25.45
 1074.58   25.58 1086.15   25.72 1141.55   26.36 1172.60   26.72 1201.83   27.05
 1193.91   26.96 1222.53   27.28 1262.71   27.73 1296.19   28.09 1305.94   28.20
 1337.30   23.02 1328.58   22.95 1315.10   22.83 1318.67   22.86 1283.28   27.33
 1356.61   28.10 1267.57   27.16 1286.19   27.36 1285.03   27.35 1319.37   27.71
 1346.14   27.99 1361.85   28.15 1420.05   28.75 1524.81   29.79 1602.21   30.54
 1597.56   30.49 1638.88   30.88 1704.06   31.49 1767.50   32.07 1767.50   32.07
 1755.27   31.96 1706.39   31.51 1769.24   32.09 1668.56   31.16 1569.62   30.22
 1546.92   30.00 1457.88   29.13 1382.80   28.37 1371.16   28.25 1261.75   27.10
 1216.35   26.61 1114.51   25.47 1100.54   25.31 1054.56   24.77 1031.28   24.50
 1004.51   24.18  960.86   23.65  988.80   23.99  938.16   23.37  930.60   23.27
  899.17   22.88  912.56   23.05  866.00   22.45  869.49   22.50  907.32   22.98
  868.33   22.48  898.01   22.86  886.37   22.71  888.11   22.73  836.32   22.06
  843.30   22.15  907.90   22.99  888.11   22.73  939.33   23.38  890.35   18.84
  932.22   19.28  954.15   19.50  886.76   18.80  999.20   19.96 1026.79   24.79
  998.65   24.45 1018.41   24.69 1040.56   24.96 1059.12   25.18 1057.93   25.17
 1044.75   25.01 1078.88   25.42 1102.83   25.70 1120.79   25.90 1125.58   25.96
 1121.99   25.92 1135.76   26.08 1160.90   26.36 1218.38   27.01 1275.26   27.63
 1163.90   26.40 1232.75   27.17 1276.46   27.64 1286.63   27.75 1360.87   28.54
 1408.77   29.04 1447.09   29.43 1445.89   29.42 1620.72   31.15 1657.24   31.50
 1805.72   32.88 1863.19   33.40 2026.64   34.83 2097.89   35.44 2373.30   37.70
 2476.87   38.51 2681.63   40.07 2876.22   41.50 2937.28   41.94 3020.51   42.53
 2995.36   42.35 2991.17   42.32 3094.15   43.04 2987.58   42.29 2986.38   42.28
 2815.75   41.06 2709.77   40.28 2547.52   39.05 2409.22   37.98 2294.27   37.06
 2088.91   35.36 1887.74   33.62 1766.80   32.52 1720.68   26.59 1587.59   25.54
 1512.01   24.92 1409.32   24.06 1344.01   23.50 1328.83   29.24 1279.92   28.70
 1173.75   27.48 1172.46   27.47 1124.84   26.90 1097.81   26.58 1084.94   26.42
 1033.46   25.79 1074.00   26.29 1033.46   25.79 1053.41   26.04  991.63   25.26
 1068.85   26.23 1041.83   25.89 1040.54   25.88 1027.03   25.71 1004.50   25.42
 1023.81   25.67 1024.45   25.68 1030.24   25.75 1026.38   25.70 1064.99   26.18
 1047.62   25.96 1019.31   25.61 1027.03   25.71 1043.11   25.91  998.71   25.35
 1002.57   25.40  980.05   25.11  958.82   24.84  965.25   24.92  938.22   24.57
  937.58   24.56  933.72   24.51  885.46   23.87  926.64   24.42  909.91   24.20
  879.67   23.79  917.63   24.30  906.05   24.15  914.41   24.26  886.74   23.89
  910.55   24.21  871.94   23.69  933.72   24.51  931.15   24.48  911.20   24.21
  962.68   24.89  927.03   19.60  961.44   19.97  951.08   19.86  983.42   20.19
  997.10   20.33  974.71   20.10 1022.65   25.11 1037.45   25.29 1023.27   25.12
 1062.72   25.59 1102.17   26.07 1115.73   26.23 1115.12   26.22 1174.91   26.91
 1235.94   27.60 1190.94   27.09 1252.58   27.79 1295.11   28.25 1263.68   27.91
 1271.69   28.00 1301.28   28.32 1296.96   28.28 1335.18   28.69 1291.42   28.21
 1317.31   28.50 1271.69   28.00 1246.42   27.72 1176.76   26.93 1186.01   27.04
 1191.55   27.10 1182.92   27.00 1181.69   26.99 1259.36   27.86 1197.72   27.17
 1196.49   27.16 1234.70   27.59 1288.33   28.18 1317.92   28.50 1367.24   29.03
 1364.15   29.00 1411.62   29.50 1424.56   29.63 1574.97   31.16 1584.22   31.25
 1677.92   32.16 1712.44   32.49 1728.46   32.64 1816.61   33.46 1812.91   33.43
 1861.00   33.87 1905.99   34.28 1837.57   33.66 1893.05   34.16 1891.20   34.14
 1842.50   33.70 1819.61   27.05 1778.18   26.74 1728.71   26.37 1661.14   25.85
 1600.00   25.37 1598.72   30.47 1523.23   29.74 1487.80   29.39 1411.15   28.63
 1394.31   28.46 1339.72   27.89 1269.45   27.15 1313.01   27.61 1251.45   26.96
 1192.22   26.31 1215.45   26.57 1232.87   26.76 1198.03   26.38 1188.73   26.27
 1156.21   25.91 1132.98   25.65 1221.84   26.64 1181.77   26.20 1212.54   26.54
 1244.48   26.88 1275.84   27.22 1352.50   28.03 1339.14   27.89 1389.66   28.41
 1466.90   29.19 1522.65   29.74 1541.23   29.92 1563.30   30.13 1602.21   30.50
 1577.82   30.27 1662.60   31.07 1624.27   30.71 1599.88   30.48 1628.92   30.76
 1595.82   30.44 1552.85   30.03 1558.65   30.09 1441.93   28.94 1390.82   28.42
 1405.92   28.57 1379.79   28.31 1267.71   27.13 1307.20   27.55 1215.45   26.57
 1195.70   26.35 1144.02   25.78 1113.82   25.43 1076.66   25.00 1042.39   24.60
 1068.13   20.29 1028.04   19.91 1039.61   20.02  996.82   19.60  983.15   23.80
  999.28   23.99  949.75   23.39  996.40   23.96 1010.80   24.13  988.91   23.87
  948.60   23.37  973.36   23.68  982.58   23.79  992.94   23.91  969.91   23.64
 1032.11   24.38  987.76   23.85  989.49   23.87 1040.75   24.48 1011.38   24.14
 1029.81   24.35 1083.37   24.98 1029.81   24.35 1083.95   24.99 1115.05   25.34
 1173.22   25.99 1174.37   26.01 1150.18   25.74 1221.60   26.53 1357.52   27.96
 1310.30   27.47 1402.45   28.42 1382.29   28.22 1479.05   29.19 1521.09   29.60
 1579.27   30.16 1633.41   30.67 1657.60   30.90 1695.03   31.25 1701.94   31.31
 1708.28   31.37 1743.41   31.69 1698.49   31.28 1812.53   32.31 1783.73   32.05
 1735.93   31.62 1646.65   30.80 1693.30   31.23 1597.70   30.33 1544.13   29.82
 1563.14   30.00 1436.43   28.76 1351.76   27.90 1361.34   23.51 1331.30   23.25
 1262.71   22.64 1248.50   22.51 1211.97   22.18 1181.94   21.90 1148.30   26.79
 1187.69   27.25 1152.06   26.84 1153.93   26.86 1119.55   26.45 1105.80   26.29
 1120.80   26.47 1107.05   26.31 1125.18   26.52 1164.56   26.98 1115.80   26.41
 1169.56   27.04 1173.31   27.08 1195.19   27.33 1233.94   27.77 1225.82   27.68
 1288.95   28.39 1346.46   29.01 1382.72   29.40 1347.09   29.02 1436.47   29.97
 1507.11   30.69 1415.85   29.75 1445.23   30.06 1455.85   30.17 1407.09   29.66
 1469.60   30.31 1377.72   29.35 1449.60   30.10 1452.10   30.13 1428.35   29.88
 1356.46   29.12 1345.21   29.00 1350.21   29.05 1342.71   28.97 1355.21   29.11
 1238.32   27.82 1263.95   28.11 1238.94   27.83 1239.57   27.84 1265.82   28.13
 1202.69   27.42 1196.44   27.35 1265.20   28.12 1246.44   27.91 1243.94   27.89
 1251.45   27.97 1287.08   28.36 1298.33   28.49 1315.83   28.68 1294.58   28.45
 1315.83   28.68 1322.71   28.75 1321.46   28.74 1411.68   44.05 1396.56   43.81
 1389.69   43.71 1304.47   42.34 1353.95   43.14 1308.59   42.41 1305.84   42.37
 1309.97   42.43 1274.23   41.85 1264.60   41.69 1282.47   41.99 1190.38   40.45
 1173.88   40.17 1074.91   38.44 1094.16   38.78 1103.78   38.95 1007.56   37.22
 1032.30   37.67  944.33   36.03  901.72   35.21  927.84   35.71  952.58   36.19
 1002.06   37.11  918.21   35.53  944.33   36.03  857.73   34.34  850.86   34.20
  865.98   34.50  897.59   35.13  892.10   35.02  863.23   34.45  832.99   33.84
  930.58   35.77  875.60   34.69  992.44   36.93  820.62   33.59  881.10   34.80
  915.46   35.47  934.71   35.84  958.08   36.29  996.56   37.01  942.96   36.00
  993.81   36.96  985.57   36.81 1035.05   37.72 1002.06   37.11  947.08   36.08
 1048.80   37.97 1006.19   37.19  967.70   36.47 1055.67   38.09 1050.17   37.99
 1032.30   37.67                                                                