                                                                                
BANK 1 2431 487 CONST  602.500    5.000 0 0 ESD                                 
  849.93   31.06  916.88   32.26  930.50   32.49  886.24   31.71  900.99   31.98
  841.99   30.91  939.57   32.65  896.45   31.89  851.06   31.08  904.40   32.04
  839.72   30.87  872.62   31.47  873.76   31.49  862.41   31.28  915.74   32.24
  894.18   31.85  841.99   30.91  883.97   31.67  854.47   31.14  838.58   30.85
  873.76   31.49  822.70   30.55  839.72   30.87  824.96   30.60  879.43   31.59
  855.60   31.16  878.30   31.57  848.79   31.03  820.43   30.51  841.99   30.91
  913.48   32.20  771.63   29.59  844.26   30.95  908.94   32.12  794.33   30.02
  885.11   31.69  865.82   31.34  847.66   31.01  835.18   30.79  839.72   30.87
  845.39   30.97  812.48   30.36  773.90   29.63  792.06   29.98  832.91   30.74
  794.33   30.02  809.08   30.30  882.84   31.65  792.06   29.98  863.55   31.30
  863.55   31.30  814.75   30.41  794.69   21.19  820.69   21.54  838.21   21.77
  842.73   21.82  839.90   21.79  830.30   21.66  864.77   22.11  843.30   21.83
  814.47   21.46  837.64   21.76  811.64   21.42  817.86   21.50  829.16   21.65
  856.86   22.01  833.69   21.71  816.17   21.48  809.95   21.40  831.99   21.69
  820.12   21.53  821.25   21.54  859.69   22.04  845.56   21.86  828.03   21.63
  790.17   21.13  837.08   21.75  835.38   21.73  792.99   21.17  825.21   21.60
  838.21   21.77  754.56   20.65  855.16   21.99  811.08   21.41  781.12   21.01
  834.82   21.72  818.43   21.51  780.56   21.00  808.25   21.37  835.95   21.74
  841.03   21.80  763.04   20.77  839.34   21.78  799.21   21.25  809.38   21.39
  790.17   21.13  822.95   21.57  805.43   21.34  754.56   20.65  829.16   21.65
  783.38   21.04  819.56   21.52  823.51   21.57  779.99   21.00  812.21   21.43
  840.56   17.70  834.22   17.63  817.07   17.45  811.11   17.39  798.06   17.25
  831.98   17.61  819.68   17.48  828.63   17.57  828.75   21.45  805.44   21.14
  814.32   21.26  861.50   21.87  841.52   21.61  815.43   21.28  845.41   21.66
  849.29   21.71  837.08   21.56  838.19   21.57  823.20   21.38  819.87   21.33
  834.86   21.53  847.07   21.68  818.76   21.32  846.52   21.68  808.77   21.19
  855.40   21.79  830.42   21.47  789.90   20.94  829.31   21.46  808.22   21.18
  825.98   21.41  814.88   21.27  837.64   21.56  817.10   21.30  821.54   21.35
  784.35   20.87  858.73   21.83  789.90   20.94  810.99   21.22  807.66   21.17
  812.66   21.24  830.42   21.47  819.32   21.33  774.35   20.73  828.20   21.44
  847.07   21.68  779.91   20.81  800.44   21.08  797.67   21.04  783.79   20.86
  796.00   21.02  800.44   21.08  857.62   21.82  808.77   21.19  827.09   21.43
  831.57   17.57  815.23   17.40  844.57   17.71  818.57   17.44  794.06   17.17
  835.69   21.52  808.53   21.17  868.94   21.94  842.34   21.61  857.86   21.80
  830.15   21.45  804.66   21.12  845.11   21.64  810.75   21.20  814.08   21.24
  809.64   21.18  837.91   21.55  805.76   21.13  849.54   21.70  855.08   21.77
  826.82   21.41  789.69   20.92  800.22   21.06  841.23   21.59  803.55   21.10
  827.93   21.42  825.71   21.39  823.50   21.36  792.46   20.96  830.70   21.46
  797.45   21.02  851.21   21.72  764.20   20.58  819.62   21.31  802.99   21.09
  793.02   20.96  821.28   21.33  817.40   21.28  818.51   21.30  766.97   20.62
  798.56   21.04  856.75   21.79  810.20   21.19  829.59   21.44  775.28   20.73
  792.46   20.96  815.74   21.26  794.13   20.98  765.86   20.60  793.57   20.97
  789.14   20.91  856.75   21.79  802.44   21.09  821.83   21.34  829.59   21.44
  827.65   17.49  851.68   17.74  844.65   17.67  837.17   21.62  844.43   21.71
  826.01   21.47  866.19   21.99  833.26   21.57  857.82   21.88  848.33   21.76
  855.03   21.84  842.19   21.68  831.03   21.54  838.29   21.63  849.45   21.77
  817.08   21.35  846.10   21.73  857.26   21.87  809.82   21.26  877.35   22.13
  903.59   22.46  927.03   22.75  916.98   22.62  987.86   23.48 1029.72   23.97
 1049.81   24.21 1093.90   24.71 1170.92   25.56 1233.43   26.24 1353.98   27.49
 1489.05   28.83 1638.06   30.24 1817.22   31.85 2196.74   35.01 2481.93   37.22
 2923.40   40.39 3508.30   44.25 3955.35   46.98 4101.58   47.85 4149.57   48.12
 3861.59   46.42 3415.10   43.66 2692.90   38.77 2068.93   33.98 1622.44   30.09
 1286.45   26.80 1022.46   23.89  997.91   23.60  876.80   22.12  915.31   22.60
  874.01   22.09  875.12   22.10  852.24   21.81  863.96   21.96  907.92   18.71
  892.87   18.56  846.98   18.07  874.75   18.37  899.07   22.99  933.74   23.42
  913.18   23.16  878.51   22.72  867.93   22.58  914.35   23.18  896.14   22.95
  950.79   23.64  993.10   24.16 1032.47   24.63 1061.26   24.97 1140.00   25.88
 1226.38   26.85 1326.87   27.92 1439.11   29.08 1632.44   30.97 1883.94   33.27
 2221.24   36.13 2575.00   38.90 3055.09   42.37 3572.21   45.82 4030.56   48.67
 4124.58   49.23 3990.01   48.42 3670.93   46.45 3063.90   42.43 2478.04   38.16
 1907.45   33.48 1463.20   29.32 1190.54   26.45 1031.29   24.62  966.65   23.83
  940.21   23.51  842.07   22.24  904.95   23.06  839.72   22.21  869.11   22.60
  887.32   22.83  846.78   22.31  836.20   22.17  862.64   22.51  838.55   22.20
  818.57   21.93  844.42   22.28  855.59   22.42  812.69   21.85  835.61   22.16
  822.09   21.98  819.74   21.95  829.91   18.14  840.62   18.26  801.75   17.83
  839.04   18.24  796.19   17.77  817.22   18.01  833.95   22.69  854.32   22.96
  807.41   22.32  836.42   22.72  832.10   22.66  858.64   23.02  855.56   22.98
  837.04   22.73  841.98   22.80  843.21   22.81  924.07   23.88  881.48   23.33
  891.36   23.46  911.11   23.72  934.57   24.02  993.21   24.76 1033.95   25.26
 1130.86   26.42 1200.00   27.22 1362.35   29.00 1456.79   29.99 1518.52   30.62
 1625.93   31.68 1553.70   30.97 1544.44   30.88 1358.64   28.96 1204.32   27.27
 1143.21   26.56  972.22   24.50  886.42   23.39  865.43   23.11  843.21   22.81
  817.90   22.47  803.70   22.27  802.47   22.26  813.58   22.41  812.35   22.39
  788.89   22.07  809.26   22.35  772.22   21.83  770.37   21.81  827.16   22.60
  822.84   22.54  827.78   22.60  829.01   22.62  817.90   22.47  811.73   22.38
  769.14   21.79  785.68   18.24  837.78   18.84  800.93   18.42  818.72   18.62
  832.70   18.78  779.75   18.17  789.74   22.50  828.21   23.04  770.51   22.22
  826.28   23.01  803.85   22.70  830.77   23.08  798.72   22.63  779.49   22.35
  803.85   22.70  778.21   22.33  783.33   22.41  792.31   22.54  841.03   23.22
  794.23   22.56  790.38   22.51  773.72   22.27  785.26   22.44  764.74   22.14
  772.44   22.25  854.49   23.40  769.23   22.21  815.38   22.86  808.33   22.76
  749.36   21.92  770.51   22.22  789.74   22.50  814.10   22.84  778.85   22.34
  778.21   22.33  758.33   22.05  767.31   22.18  762.18   22.10  776.92   22.32
  780.77   22.37  787.82   22.47  792.95   22.55  809.62   22.78  774.36   22.28
  771.79   22.24  763.46   22.12  785.90   22.45  752.56   21.96  776.28   22.31
  776.92   22.32  791.67   22.53  757.69   22.04  748.72   21.91  776.92   22.32
  791.03   22.52  789.02   18.04  820.80   18.40  778.71   17.93  789.44   18.05
  788.53   22.17  794.14   22.25  814.71   22.54  802.24   22.36  762.97   21.81
  804.11   22.39  780.43   22.06  833.41   22.79  791.65   22.21  767.96   21.88
  809.72   22.47  782.30   22.08  779.18   22.04  742.40   21.51  794.76   22.26
  764.22   21.83  777.93   22.02  798.50   22.31  783.54   22.10  772.95   21.95
  781.67   22.07  764.84   21.83  809.10   22.46  788.53   22.17  775.44   21.99
  771.08   21.92  772.95   21.95  782.92   22.09  782.30   22.08  749.88   21.62
  728.07   21.30  754.87   21.69  759.86   21.76  772.95   21.95  787.91   22.16
  804.74   22.40  761.73   21.79  748.01   21.59  771.08   21.92  763.60   21.82
  790.40   22.20  765.47   21.84  723.70   21.24  766.71   21.86  733.68   21.39
  767.96   21.88  792.27   22.22  781.67   22.07  768.58   21.89  790.03   17.89
  794.08   17.94  789.63   17.89  783.96   17.82  793.27   17.93  765.96   21.06
  814.59   21.72  806.48   21.61  789.12   21.37  816.91   21.75  787.96   21.36
  786.80   21.34  805.91   21.60  790.27   21.39  783.33   21.30  811.69   21.68
  799.54   21.52  787.38   21.35  782.75   21.29  783.33   21.30  779.27   21.24
  809.38   21.65  746.27   20.79  778.12   21.22  783.33   21.30  803.01   21.56
  789.12   21.37  809.96   21.65  820.96   21.80  825.01   21.86  785.64   21.33
  788.54   21.37  781.01   21.26  766.54   21.07  801.27   21.54  825.59   21.86
  812.85   21.69  845.27   22.12  813.43   21.70  873.64   22.49  908.38   22.93
  932.12   23.23  985.38   23.88 1068.75   24.87 1163.70   25.96 1148.65   25.79
 1117.96   25.44 1081.49   25.02 1045.59   24.60  946.01   23.40  895.06   22.76
  862.06   22.34  783.91   21.30  775.22   21.19  776.96   21.21  778.07   17.42
  791.73   17.58  817.48   17.86  787.05   17.52  777.29   17.42  789.64   21.56
  776.70   21.38  801.41   21.72  774.93   21.35  734.92   20.80  784.94   21.49
  809.65   21.83  794.94   21.63  818.48   21.95  810.24   21.83  843.19   22.27
  738.45   20.84  790.23   21.56  769.64   21.28  737.86   20.84  822.59   22.00
  783.17   21.47  778.46   21.40  784.94   21.49  743.16   20.91  789.64   21.56
  754.34   21.07  770.23   21.29  746.10   20.95  835.54   22.17  802.00   21.72
  763.17   21.19  803.18   21.74  808.47   21.81  838.48   22.21  814.95   21.90
  780.82   21.43  836.72   22.19  800.24   21.70  818.48   21.95  851.43   22.38
  836.13   22.18  876.73   22.71  821.42   21.98  810.24   21.83  812.59   21.87
  792.59   21.60  786.11   21.51  804.35   21.76  825.54   22.04  769.64   21.28
  774.35   21.35  757.28   21.11  815.85   17.80  818.96   17.84  791.38   17.53
  819.74   17.85  789.04   17.51  816.37   21.85  769.59   21.21  832.16   22.06
  784.80   21.42  801.75   21.65  797.66   21.60  816.96   21.86  815.20   21.83
  819.88   21.90  787.13   21.45  800.58   21.64  790.06   21.49  821.05   21.91
  803.51   21.68  814.62   21.83  802.92   21.67  821.05   21.91  817.54   21.87
  818.71   21.88  792.98   21.53  829.24   22.02  827.49   22.00  803.51   21.68
  819.88   21.90  780.12   21.36  819.30   21.89  818.13   21.87  812.87   21.80
  861.99   22.45  795.91   21.57  840.35   22.17  835.67   22.11  859.06   22.41
  849.12   22.28  926.90   23.28  925.15   23.26  945.61   23.52  972.51   23.85
 1069.59   25.01 1111.11   25.49 1087.72   25.22 1098.83   25.35 1115.20   25.54
 1109.94   25.48 1073.10   25.05 1061.99   24.92 1132.75   25.74 1192.40   26.41
 1291.81   27.49 1416.98   23.53 1562.01   24.71 1730.87   26.01 1846.18   26.86
 1830.94   26.75 1731.65   26.02 1652.01   30.97 1515.02   29.66 1332.17   27.81
 1221.88   26.63 1135.97   25.68 1011.17   24.23 1044.84   24.63 1016.40   24.29
 1010.59   24.22 1069.22   24.91 1015.24   24.28 1048.32   24.67 1084.31   25.09
 1116.82   25.46 1134.23   25.66 1192.28   26.31 1273.55   27.19 1326.95   27.75
 1432.59   28.84 1594.54   30.42 1748.37   31.86 1937.02   33.53 2139.02   35.24
 2646.35   39.19 3165.87   42.87 4044.70   48.45 5298.51   55.46 6936.00   63.45
 9209.11   73.1111525.18   81.7913971.85   90.0615666.23   95.3616135.25   96.78
15410.25   94.5812965.32   86.7510455.96   77.91 7748.08   67.06 5611.96   57.08
 3875.78   47.43 2909.88   41.10 2360.18   37.01 1908.58   33.28 1728.63   31.68
 1574.23   30.23 1480.19   29.31 1459.88   29.11 1521.99   29.72 1548.47   25.29
 1692.16   26.43 1856.92   27.69 2066.69   29.21 2372.25   31.30 2631.57   32.96
 2861.21   43.00 2891.58   43.23 2755.86   42.20 2438.52   39.70 2100.50   36.85
 1790.92   34.02 1483.28   30.96 1286.80   28.84 1129.75   27.02  986.27   25.25
  979.16   25.16  913.88   24.30  883.50   23.90  954.60   24.84  917.11   24.35
  897.08   24.08  908.06   24.23  867.35   23.68  891.26   24.00  897.72   24.09
  882.86   23.89  900.31   24.12  871.22   23.73  916.46   24.34  946.19   24.73
  880.92   23.86  919.70   24.38  987.56   25.26  920.34   24.39  924.87   24.45
  880.27   23.85  934.56   24.58  866.70   23.67  871.22   23.73  815.64   22.96
  867.99   23.69  850.54   23.45  812.41   22.91  806.59   22.83  821.46   23.04
  824.69   23.09  758.12   22.14  788.50   22.57  803.36   22.79  772.98   22.35
  802.07   22.77  805.30   22.81  771.05   22.32  778.15   22.43  804.53   18.36
  825.90   18.60  779.80   18.08  786.51   18.15  766.39   17.92  797.66   22.77
  805.46   22.88  761.25   22.25  784.01   22.58  795.06   22.73  794.41   22.73
  769.71   22.37  782.06   22.55  834.06   23.29  753.45   22.13  834.71   23.29
  756.05   22.17  803.51   22.86  800.26   22.81  777.51   22.48  806.11   22.89
  804.16   22.86  783.36   22.57  811.96   22.97  821.06   23.10  807.41   22.91
  759.30   22.22  811.31   22.97  764.51   22.29  815.86   23.03  730.05   21.79
  779.46   22.51  756.70   22.18  800.26   22.81  759.30   22.22  757.35   22.19
  797.01   22.76  773.61   22.43  756.05   22.17  737.20   21.89  734.60   21.85
  719.00   21.62  804.81   22.87  740.45   21.94  770.36   22.38  732.00   21.81
  724.85   21.71  749.55   22.07  760.60   22.24  768.41   22.35  776.86   22.47
  747.60   22.05  759.95   22.23  755.40   22.16  739.08   17.77  805.72   18.55
  753.18   17.94  808.29   18.58  809.50   22.21  766.86   21.61  786.97   21.89
  793.67   21.99  774.17   21.72  777.83   21.77  808.28   22.19  795.49   22.01
  751.64   21.40  818.03   22.32  743.11   21.28  761.99   21.54  772.96   21.70
  754.68   21.44  760.77   21.53  776.00   21.74  832.65   22.52  774.17   21.72
  771.13   21.67  762.60   21.55  771.13   21.67  786.97   21.89  783.92   21.85
  771.13   21.67  760.16   21.52  790.01   21.94  752.25   21.41  794.88   22.00
  803.41   22.12  781.48   21.82  859.45   22.88  890.51   23.29  883.20   23.19
  852.75   22.79  881.38   23.17  931.32   23.82  942.29   23.96 1068.98   25.52
 1114.06   26.05 1320.54   28.36 1439.93   29.62 1553.22   30.76 1640.32   31.61
 1609.26   31.31 1575.15   30.97 1441.15   29.63 1212.73   27.18 1167.66   26.67
 1045.23   25.23  922.19   23.70  933.29   19.32  876.89   18.73  878.09   18.74
  861.69   18.57  899.29   18.97  876.84   22.98  875.64   22.96  898.52   23.26
  919.00   23.53  900.33   23.29  940.08   23.79  978.62   24.28 1113.52   25.90
 1202.65   26.91 1341.76   28.43 1623.61   31.27 1929.54   34.09 2339.05   37.53
 2761.22   40.78 3076.78   43.05 3252.03   44.25 3031.62   42.73 2755.80   40.74
 2447.46   38.39 1993.98   34.65 1627.22   31.30 1300.21   27.98 1202.65   26.91
 1046.67   25.11  957.54   24.01  919.00   23.53  884.67   23.08  844.32   22.55
  819.03   22.21  822.04   22.25  827.46   22.32  866.61   22.85  766.03   21.48
  827.46   22.32  804.58   22.01  745.56   21.19  843.72   22.54  807.59   22.05
  789.52   21.81  802.77   21.99  755.80   21.33  829.27   22.35  785.91   21.76
  831.07   22.37  805.78   22.03  862.99   22.80  811.80   22.11  808.19   22.06
  846.73   22.58  826.57   18.41  813.04   18.26  840.51   18.56  855.68   18.73
  847.89   18.65  877.48   23.16  856.71   22.88  862.21   22.95  904.98   23.52
  928.20   23.82  933.70   23.89  944.09   24.02  967.31   24.31 1001.53   24.74
 1051.02   25.34 1069.36   25.56 1129.85   26.28 1165.90   26.69 1282.62   28.00
 1360.83   28.84 1526.43   30.54 1662.69   31.87 1905.29   34.12 2160.10   36.33
 2650.78   40.25 3284.45   44.80 3879.01   48.69 4568.29   52.83 5109.07   55.87
 5220.90   56.48 5022.30   55.40 4402.08   51.86 3687.75   47.47 3120.68   43.67
 2465.02   38.81 1934.62   34.38 1689.58   32.13 1291.78   28.10 1228.23   27.40
 1099.30   25.92 1008.25   24.82  971.59   24.37  937.98   23.94  926.98   23.80
  912.92   23.62  887.87   23.29  859.15   22.91  872.59   23.09  898.87   23.44
  840.82   22.67  820.04   22.39  838.37   22.63  803.54   22.16  802.32   22.14
  836.77   18.53  803.53   18.16  825.69   18.41  859.75   18.78  798.19   18.10
  879.18   23.60  901.35   23.89  851.94   23.23  888.68   23.73  919.08   24.13
  981.79   24.94 1011.56   25.31 1088.20   26.25 1195.25   27.52 1375.77   29.52
 1631.67   32.15 1935.71   35.02 2185.27   37.20 2358.83   38.65 2420.90   39.16
 2298.02   38.15 2037.05   35.92 1789.39   33.67 1514.49   30.97 1283.93   28.52
 1138.88   26.86 1021.69   25.44  986.22   24.99  879.18   23.60  848.14   23.18
  815.84   22.73  838.00   23.04  841.17   23.08  817.10   22.75  830.40   22.93
  813.94   22.71  820.27   22.79  844.34   23.13  869.04   23.46  867.78   23.44
  842.44   23.10  957.72   24.63  958.35   24.64  953.29   24.57  955.19   24.60
  961.52   24.68  907.05   23.97  849.41   23.20  843.71   23.12  843.71   23.12
  812.03   22.68  765.80   22.02  808.87   22.64  777.83   22.20  760.24   18.13
  777.09   18.33  746.41   17.96  762.83   18.16  779.69   18.36  781.63   22.56
  811.59   22.99  754.27   22.17  777.72   22.51  826.58   23.20  809.64   22.96
  776.42   22.49  780.33   22.54  807.69   22.94  764.04   22.31  700.21   21.36
  779.03   22.53  754.93   22.17  817.46   23.08  750.37   22.11  822.67   23.15
  802.48   22.86  764.04   22.31  761.44   22.27  760.79   22.26  791.40   22.70
  760.14   22.25  790.75   22.70  791.40   22.70  737.99   21.92  736.69   21.91
  765.35   22.33  751.02   22.12  775.77   22.48  742.55   21.99  732.78   21.85
  772.51   22.43  790.75   22.70  783.59   22.59  834.39   23.31  829.18   23.24
  854.58   23.59  870.22   23.81  940.56   24.75  923.63   24.53 1015.47   25.72
 1064.97   26.34 1010.26   25.65 1027.19   25.87  988.76   25.38  932.10   24.64
  917.77   24.45  840.25   23.39  803.13   22.87  818.35   18.69  805.97   18.54
  821.33   18.72  775.25   18.19  752.64   17.92  781.99   22.51  816.33   23.00
  769.03   22.32  793.65   22.68  789.12   22.61  788.47   22.60  769.03   22.32
  760.61   22.20  802.07   22.80  770.33   22.34  855.20   23.54  809.20   22.90
  809.20   22.90  839.65   23.32  827.34   23.15  809.85   22.91  828.64   23.17
  814.38   22.97  844.19   23.39  837.71   23.30  866.86   23.70  867.51   23.71
  922.58   24.45  934.24   24.60  998.38   25.43 1083.90   26.50 1183.67   27.69
 1308.71   29.12 1401.36   30.13 1490.77   31.08 1557.50   31.77 1566.57   31.86
 1490.12   31.07 1412.37   30.25 1292.52   28.94 1203.11   27.92 1137.03   27.14
 1088.44   26.56 1021.70   25.73 1098.80   26.68 1042.44   25.99  989.96   25.33
 1083.25   26.49 1063.17   26.25 1136.38   27.13 1137.03   27.14 1159.05   27.40
 1282.80   28.83 1403.95   30.16 1480.83   24.84 1625.00   26.02 1858.75   27.83
 2001.67   28.88 2235.83   30.52 2283.48   37.03 2450.45   38.36 2626.43   39.72
 2809.01   41.07 3172.97   43.65 3595.80   46.47 3906.91   48.44 4427.63   51.57
 4691.89   53.08 4644.44   52.82 4341.74   51.07 3754.95   47.49 3320.12   44.65
 2784.38   40.89 2278.68   36.99 1933.33   34.08 1608.41   31.08 1378.38   28.77
 1228.83   27.17 1153.75   26.32 1172.37   26.54 1033.63   24.92 1001.80   24.53
  967.57   24.11  928.53   23.62  931.53   23.65  926.73   23.59  893.09   23.16
  848.05   22.57  849.85   22.59  855.86   22.67  872.67   22.89  809.61   22.05
  822.22   22.22  818.62   22.17  797.00   21.88  815.02   22.12  795.20   21.85
  800.00   21.92  827.63   22.30  809.61   22.05  865.47   22.80  902.70   23.28
  934.53   23.69  959.16   24.00  965.77   24.08 1046.25   25.07 1014.41   24.68
 1057.51   20.70  982.18   19.95  979.75   19.92  891.86   19.01  889.83   18.98
  879.30   18.87  843.12   22.53  838.90   22.48  802.17   21.98  814.21   22.14
  806.38   22.04  879.86   23.02  807.59   22.05  853.96   22.68  824.45   22.28
  786.51   21.76  860.58   22.77  849.14   22.61  882.26   23.05  899.73   23.28
  928.64   23.65  962.96   24.08 1040.05   25.03 1164.11   26.48 1272.51   27.68
 1486.90   29.92 1611.56   31.15 1869.32   33.55 2112.62   35.67 2287.87   37.12
 2508.88   38.87 2425.17   38.22 2354.11   37.65 2112.01   35.66 1907.26   33.89
 1671.79   31.73 1464.62   29.70 1266.49   27.62 1183.98   26.70 1082.81   25.54
  949.71   23.92  903.34   23.32  853.36   22.67  856.97   22.72  848.54   22.61
  853.36   22.67  766.64   21.49  808.79   22.07  819.63   22.22  807.59   22.05
  735.32   21.04  787.71   21.78  773.26   21.58  766.64   21.49  764.93   17.64
  772.66   17.73  754.76   17.52  732.78   17.27  742.14   17.38  778.76   17.80
  809.99   22.49  775.02   22.00  751.29   21.66  777.52   22.04  808.74   22.47
  783.14   22.12  741.92   21.53  748.79   21.62  776.27   22.02  768.77   21.91
  739.42   21.49  795.00   22.28  756.28   21.73  756.28   21.73  736.30   21.44
  746.29   21.59  720.06   21.21  741.92   21.53  750.04   21.64  766.28   21.88
  747.54   21.61  781.89   22.10  804.37   22.41  752.54   21.68  803.75   22.40
  766.90   21.88  790.63   22.22  738.80   21.48  818.11   22.60  798.13   22.33
  774.40   21.99  783.76   22.12  779.39   22.06  810.62   22.50  784.39   22.13
  866.20   23.26  859.95   23.17  851.21   23.06  889.31   23.57  912.41   23.87
  912.41   23.87  910.54   23.85  937.39   24.20  959.88   24.48  955.50   24.43
 1044.81   25.54 1103.51   26.25 1262.14   28.08 1293.78   23.46 1372.46   24.16
 1520.89   25.43 1678.26   26.72 1749.71   27.28 1863.31   34.70 2051.38   36.41
 2300.86   38.56 2518.66   40.35 2757.80   42.22 3150.11   45.12 3281.95   46.06
 3381.48   46.75 3159.15   45.19 3047.99   44.38 2782.36   42.41 2381.64   39.23
 2064.95   36.53 1730.17   33.44 1518.18   31.32 1334.63   29.37 1176.28   27.57
 1072.22   26.32 1000.48   25.43  962.35   24.94  913.88   24.30  920.34   24.39
  851.19   23.45  848.60   23.42  823.40   23.07  847.96   23.41  827.27   23.12
  778.80   22.44  819.52   23.01  769.11   22.30  804.01   22.80  794.96   22.67
  816.93   22.98  776.22   22.40  764.58   22.23  769.11   22.30  782.68   22.49
  790.43   22.60  755.53   22.10  782.03   22.48  778.15   22.43  779.45   22.44
  738.73   21.85  790.43   22.60  763.94   22.22  782.03   22.48  805.95   22.82
  821.46   23.04  746.49   21.96  822.79   19.21  810.68   19.07  837.60   19.38
  836.70   19.37  859.58   19.64  820.67   23.94  907.28   25.17  961.76   25.92
  998.08   26.40 1072.11   27.36 1159.42   28.46 1255.11   29.61 1383.62   31.09
 1502.36   32.39 1818.05   35.63 2005.24   37.42 2282.52   39.93 2575.87   42.42
 2609.39   42.69 2630.35   42.86 2522.79   41.98 2288.11   39.98 2057.62   37.91
 1808.28   35.54 1573.60   33.15 1352.89   30.74 1209.01   29.06 1148.25   28.32
 1021.83   26.71  990.40   26.30  938.01   25.60  910.77   25.22  900.30   25.08
  874.45   24.71  843.72   24.28  859.09   24.50  789.94   23.49  840.23   24.23
  823.47   23.98  787.15   23.45  859.79   24.51  802.51   23.68  854.20   24.43
  798.32   23.61  826.26   24.02  818.58   23.91  838.14   24.19  794.13   23.55
  827.66   24.04  832.55   24.11  902.39   25.11  821.37   23.95  850.01   24.37
  912.17   25.24  878.65   24.77  910.73   20.01  908.53   19.99  945.03   20.39
  932.72   20.25  971.13   25.24 1003.28   25.66 1000.00   25.62 1134.51   27.28
 1165.35   27.65 1227.03   28.37 1298.56   29.19 1423.88   30.57 1505.25   31.43
 1645.01   32.85 1646.33   32.87 1789.37   34.27 1772.97   34.11 1656.17   32.97
 1579.40   32.19 1516.40   31.54 1382.55   30.12 1373.36   30.02 1325.46   29.49
 1305.12   29.26 1243.44   28.56 1288.06   29.07 1405.51   30.37 1426.51   30.59
 1499.34   31.37 1607.61   32.48 1902.23   35.33 2148.29   37.55 2360.89   39.36
 2825.46   43.06 3087.93   45.01 3519.69   48.06 3822.18   50.08 3896.98   50.57
 3823.49   50.09 3662.73   49.02 3412.73   47.32 2984.25   44.25 2769.03   42.63
 2414.70   39.81 2185.04   37.86 2047.24   36.65 1932.41   35.61 1933.07   35.61
 1851.71   34.86 1898.95   35.30 1853.02   34.87 1851.05   34.85 1721.78   33.61
 1617.02   26.36 1555.56   25.86 1443.37   24.91 1334.19   23.95 1220.29   22.90
 1148.50   26.43 1074.33   25.56 1071.29   25.52  998.94   24.64  999.54   24.65
  944.22   23.96  898.62   23.37  981.30   24.43  994.07   24.58  994.07   24.58
  982.52   24.44 1001.37   24.67 1141.81   26.35 1150.93   26.45 1132.69   26.24
 1183.77   26.83 1148.50   26.43 1138.77   26.31 1127.83   26.19 1018.39   24.88
  994.07   24.58  919.29   23.64  941.18   23.92  820.19   22.33  818.97   22.31
  791.61   21.94  850.59   22.74  805.59   22.13  795.87   22.00  817.75   22.30
  744.79   21.28  765.47   21.57  718.65   20.90  741.15   21.23  789.18   21.90
  753.31   21.40  765.47   21.57  753.91   21.41  759.99   21.50  761.82   21.52
  747.83   21.32  742.36   21.25  735.67   21.15  746.62   21.31  754.52   21.42
  787.35   21.88  726.55   21.02  775.19   21.71  772.76   21.68  779.77   17.76
  742.54   17.33  785.84   17.83  800.00   17.99  784.22   17.81  834.80   18.38
  805.40   22.24  855.74   22.92  828.12   22.55  795.58   22.10  814.00   22.35
  790.06   22.02  793.12   22.07  780.85   21.89  806.02   22.24  771.64   21.76
  790.67   22.03  799.26   22.15  794.97   22.09  788.21   22.00  806.63   22.25
  780.23   21.89  800.49   22.17  796.19   22.11  788.83   22.01  857.58   22.94
  863.72   23.03  876.61   23.20  914.06   23.69 1012.28   24.93 1002.46   24.81
 1007.37   24.87 1102.52   26.02 1125.23   26.28 1217.93   27.34 1206.26   27.21
 1158.38   26.67 1184.78   26.97 1143.65   26.50 1035.60   25.21 1041.74   25.29
  976.67   24.49  933.70   23.94  907.92   23.61  863.72   23.03  817.68   22.40
  815.22   22.37  821.98   22.46  813.38   22.35  821.98   22.46  845.92   22.79
  845.30   22.78  820.75   22.45  804.17   22.22  810.31   22.30  830.92   18.29
  790.26   17.84  772.95   17.64  760.06   17.49  745.17   21.05  760.04   21.26
  736.84   20.93  771.93   21.43  764.79   21.33  748.14   21.09  716.62   20.64
  735.65   20.92  733.87   20.89  747.55   21.08  749.33   21.11  721.97   20.72
  696.40   20.35  754.68   21.19  734.46   20.90  678.56   20.09  714.24   20.61
  744.57   21.04  742.79   21.02  724.95   20.76  751.71   21.14  730.30   20.84
  723.76   20.75  689.27   20.25  727.92   20.81  741.01   20.99  698.19   20.38
  735.06   20.91  724.95   20.76  716.62   20.64  752.90   21.16  751.12   21.14
  739.22   20.97  749.93   21.12  733.87   20.89  750.52   21.13  735.65   20.92
  767.17   21.36  727.92   20.81  777.88   21.51  741.60   21.00  770.15   21.40
  792.74   21.71  785.01   21.61  796.31   21.76  841.51   22.37  849.24   22.47
  858.76   22.60  839.13   22.34  896.82   23.09  897.96   19.10  999.09   20.14
 1015.33   20.31 1000.71   20.16 1073.51   25.62 1115.08   26.11 1205.56   27.15
 1337.00   28.59 1420.76   29.47 1544.86   30.73 1640.84   31.67 1736.21   32.58
 1810.18   33.27 1937.34   34.41 1863.37   33.75 1879.87   33.90 1793.67   33.11
 1719.09   32.42 1622.50   31.49 1505.73   30.34 1356.56   28.80 1242.85   27.56
 1183.55   26.90 1082.07   25.72 1042.34   25.24 1014.21   24.90  912.73   23.62
  887.67   23.30  880.33   23.20  904.78   23.52  816.14   22.34  791.69   22.00
  800.86   22.13  814.92   22.32  797.19   22.08  786.18   21.92  800.86   22.13
  833.26   22.57  808.80   22.24  789.24   21.97  804.52   22.18  869.33   23.05
  877.88   23.17  923.74   23.76  944.52   24.03  970.81   24.36  939.63   23.97
 1052.73   25.37 1016.66   24.93 1018.49   24.95 1048.45   25.32  989.76   24.60
 1000.76   24.73  954.70   19.67  965.24   19.78  934.02   19.46  907.67   19.18
  865.11   18.73  863.08   18.71  882.27   23.40  830.15   22.70  820.23   22.56
  832.01   22.72  864.90   23.17  868.62   23.21  858.69   23.08  901.50   23.65
  916.40   23.84  941.83   24.17  992.71   24.82  962.93   24.44 1003.26   24.95
  954.24   24.33  945.56   24.22  970.99   24.54  920.74   23.90  923.84   23.94
  863.66   23.15  822.71   22.59  836.36   22.78  813.40   22.46  786.72   22.09
  793.55   22.19  807.20   22.38  756.94   21.67  761.90   21.74  797.27   22.24
  735.23   21.36  786.72   22.09  769.35   21.85  785.48   22.08  766.25   21.80
  754.46   21.64  756.94   21.67  783.62   22.05  768.11   21.83  774.31   21.92
  809.06   22.40  801.61   22.30  786.72   22.09  826.43   22.64  797.27   22.24
  832.64   22.73  819.61   22.55  829.53   22.69  912.05   23.79  897.16   23.59
  959.52   19.83 1018.55   20.43 1024.29   20.49 1099.70   21.23 1144.38   21.66
 1150.94   21.72 1206.75   26.97 1273.06   27.70 1309.83   28.10 1284.51   27.83
 1380.95   28.85 1361.66   28.65 1356.84   28.60 1370.10   28.74 1301.39   28.01
 1242.31   27.36 1243.52   27.38 1205.55   26.96 1156.72   26.41 1040.39   25.04
  975.89   24.25  969.86   24.18  946.96   23.89  989.15   24.42  928.27   23.65
  927.67   23.65  931.89   23.70  942.13   23.83  895.12   23.23  943.34   23.85
  946.96   23.89 1001.81   24.57  996.99   24.51  984.93   24.37  934.90   23.74
  949.97   23.93  981.31   24.32  948.76   23.91  937.91   23.78  879.45   23.02
  865.58   22.84  855.94   22.71  854.13   22.69  878.84   23.02  839.66   22.50
  800.48   21.97  814.35   22.16  810.13   22.10  836.65   22.46  863.17   22.81
  878.24   23.01  831.22   22.38  894.51   23.22  924.54   19.14  961.77   19.52
  974.45   19.65 1008.91   19.99 1046.94   20.36 1089.72   20.78 1158.55   26.16
 1205.79   26.68 1315.62   27.87 1411.28   28.87 1560.08   30.35 1620.31   30.93
 1793.92   32.55 1999.41   34.36 2057.87   34.86 2243.28   36.40 2252.14   36.47
 2256.27   36.50 2217.89   36.19 2181.28   35.89 2074.99   35.00 1959.85   34.02
 1819.90   32.78 1644.52   31.16 1492.77   29.69 1366.99   28.41 1275.47   27.44
 1113.67   25.64 1080.60   25.26 1006.79   24.38 1058.16   25.00  958.37   23.79
  901.09   23.07  876.88   22.76  861.53   22.55  833.78   22.19  828.46   22.12
  818.42   21.98  790.08   21.60  779.45   21.45  757.01   21.14  771.18   21.34
  758.78   21.17  780.63   21.47  771.77   21.35  754.65   21.11  749.34   21.04
  736.94   20.86  717.45   20.58  775.91   21.40  751.70   21.07  702.10   20.36
  771.77   21.35  751.70   21.07  727.49   20.73  758.30   17.29  744.11   17.13
  742.93   17.11  766.18   17.38  760.67   17.31  748.87   20.93  782.21   21.39
  747.70   20.92  754.13   21.00  733.66   20.72  778.70   21.34  780.46   21.37
  768.76   21.21  754.72   21.01  777.53   21.33  767.00   21.18  778.70   21.34
  796.84   21.59  748.28   20.92  786.89   21.46  743.60   20.86  772.85   21.26
  802.69   21.67  817.32   21.87  766.42   21.18  804.45   21.69  784.55   21.42
  777.53   21.33  850.67   22.31  888.69   22.80  891.62   22.84  860.03   22.43
  871.73   22.58  874.07   22.61  911.51   23.09 1001.61   24.21 1034.37   24.60
 1098.73   25.35 1126.81   25.68 1159.57   26.05 1209.89   26.61 1348.54   28.09
 1353.23   28.14 1520.55   29.83 1634.05   30.92 1720.05   31.72 1841.16   32.82
 1871.00   33.09 1933.60   33.63 1871.00   33.09 1848.76   32.89 1815.42   32.59
 1766.86   32.15 1612.57   25.33 1555.29   24.87 1491.25   24.36 1434.77   23.89
 1331.34   23.01 1302.40   28.11 1182.89   26.79 1180.47   26.76 1124.66   26.12
 1077.95   25.57 1033.67   25.04 1010.62   24.76 1001.52   24.65  976.65   24.34
 1019.11   24.86  986.96   24.47 1047.01   25.20  996.66   24.59  996.06   24.58
  983.92   24.43  967.55   24.23  971.79   24.28  965.73   24.20  888.69   23.22
  933.58   23.80  887.47   23.20  817.11   22.26  846.22   22.66  852.90   22.75
  837.12   22.53  791.02   21.91  824.39   22.36  784.35   21.81  799.51   22.02
  824.39   22.36  797.69   22.00  834.09   22.49  838.34   22.55  767.97   21.58
  778.28   21.73  747.95   21.30  781.92   21.78  808.61   22.15  811.65   22.19
  814.68   22.23  816.50   22.26  812.25   22.20  792.24   21.92  824.39   22.36
  888.69   23.22  839.55   22.57  853.50   22.75  889.90   23.23  869.88   22.97
  951.77   24.03  984.62   19.90  964.91   19.70  997.49   20.03 1079.54   20.84
 1111.31   21.14 1166.51   26.65 1198.17   27.01 1273.06   27.84 1349.77   28.67
 1414.31   29.34 1487.98   30.10 1457.53   29.79 1522.68   30.45 1562.25   30.84
 1452.05   29.73 1468.49   29.90 1447.79   29.69 1405.18   29.25 1319.33   28.34
 1263.32   27.73 1227.40   27.34 1142.77   26.38 1095.28   25.82 1070.93   25.53
 1023.44   24.96 1009.44   24.79  961.34   24.19  953.42   24.09  943.07   23.96
  935.16   23.86  879.15   23.14  881.58   23.17  859.67   22.88  929.68   23.79
  835.92   22.56  843.84   22.67  859.67   22.88  923.59   23.71  894.98   23.34
  939.42   23.92  943.68   23.97  973.52   24.35 1035.01   25.10 1016.74   24.88
 1038.05   25.14 1095.89   25.83 1144.60   26.40 1199.39   27.02 1200.61   27.04
 1204.26   27.08 1238.96   27.46 1218.87   27.24 1168.34   26.67 1226.79   27.33
 1270.71   22.44 1237.81   22.15 1266.75   22.41 1216.01   21.95 1303.07   27.54
 1248.95   26.96 1208.79   26.52 1271.64   27.20 1289.68   27.40 1352.54   28.06
 1399.68   28.54 1437.51   28.92 1541.10   29.95 1528.30   29.82 1527.14   29.81
 1531.79   29.86 1631.89   30.82 1626.07   30.76 1677.29   31.24 1680.78   31.28
 1585.33   30.38 1534.70   29.89 1519.57   29.74 1421.21   28.76 1353.12   28.06
 1269.90   27.19 1202.97   26.46 1123.24   25.57 1088.90   25.17  992.29   24.03
 1016.15   24.32 1006.84   24.21  909.06   23.00  932.34   23.29  897.42   22.85
  888.11   22.73  913.14   23.05  822.35   21.88  860.18   22.37  881.13   22.65
  811.29   21.73  806.05   21.66  811.29   21.73  840.39   22.12  859.60   22.37
  792.67   21.48  810.13   21.71  813.62   21.76  829.91   21.98  866.00   22.45
  857.85   22.34  834.57   22.04  845.63   22.18  853.78   22.29  915.87   19.11
  916.27   19.11  902.71   18.97  955.34   19.52  930.62   19.26  947.76   23.82
  963.93   24.02  959.74   23.97  974.70   24.16 1022.00   24.74 1044.75   25.01
 1042.96   24.99 1036.97   24.92 1064.51   25.25 1048.94   25.06 1065.71   25.26
 1066.91   25.27 1083.67   25.47 1135.16   26.07 1117.80   25.87 1159.71   26.35
 1192.64   26.72 1248.32   27.34 1295.61   27.85 1382.43   28.77 1404.58   29.00
 1432.12   29.28 1578.81   30.74 1588.38   30.84 1710.52   32.00 1884.75   33.59
 1994.91   34.56 2118.84   35.62 2237.39   36.60 2413.41   38.01 2594.22   39.41
 2710.97   40.29 2897.17   41.65 2875.02   41.49 2967.22   42.15 2989.97   42.31
 2912.14   41.76 2869.63   41.45 2830.12   41.16 2681.04   40.06 2583.45   39.33
 2348.75   37.50 2206.26   36.34 2005.09   34.65 1943.42   34.11 1766.20   32.52
 1671.61   31.64 1503.37   30.00 1502.17   29.99 1404.40   24.02 1329.23   23.37
 1242.55   22.59 1155.88   21.79 1122.20   21.47 1153.80   27.25 1115.83   26.80
 1053.41   26.04 1007.08   25.46  973.62   25.03  987.77   25.21  955.60   24.80
  981.98   25.14  933.72   24.51  935.01   24.53  895.11   24.00  958.82   24.84
  949.81   24.72  966.54   24.94  969.76   24.98  888.67   23.91  966.54   24.94
  980.69   25.12  985.84   25.19  959.46   24.85  943.37   24.64  972.97   25.02
  938.87   24.58  945.95   24.67  980.05   25.11  956.89   24.81  917.63   24.30
  900.26   24.07  855.86   23.47  864.22   23.58  921.49   24.35  882.88   23.84
  873.23   23.70  808.24   22.81  864.22   23.58  843.63   23.30  859.72   23.52
  826.90   23.07  820.46   22.98  888.67   23.91  887.39   23.90  844.92   23.32
  835.91   23.19  876.45   23.75  881.60   23.82  869.37   23.65  860.36   23.53
  889.32   23.92  931.59   19.65  868.99   18.98  934.49   19.68  961.44   19.97
  930.76   19.64  985.49   20.21  981.35   24.60 1082.45   25.83 1090.46   25.93
 1094.16   25.97 1109.57   26.15 1126.83   26.36 1179.84   26.97 1181.69   26.99
 1215.60   27.37 1184.16   27.02 1255.05   27.81 1244.57   27.70 1301.28   28.32
 1243.33   27.68 1236.55   27.61 1200.18   27.20 1202.03   27.22 1226.07   27.49
 1076.90   25.76 1118.20   26.25 1155.19   26.68 1138.54   26.49 1121.90   26.30
 1127.45   26.36 1137.31   26.48 1167.51   26.83 1184.16   27.02 1218.68   27.41
 1266.14   27.94 1263.06   27.90 1317.31   28.50 1337.03   28.71 1415.93   29.54
 1441.82   29.81 1521.96   30.63 1620.59   31.61 1656.96   31.96 1666.82   32.05
 1746.34   32.81 1795.04   33.26 1786.41   33.18 1812.30   33.42 1847.43   33.75
 1796.89   33.28 1782.71   33.15 1715.52   32.52 1700.72   32.38 1645.86   31.85
 1624.29   31.64 1562.19   25.07 1503.87   24.59 1476.52   24.37 1414.58   23.85
 1348.22   23.29 1327.53   27.77 1257.84   27.03 1244.48   26.88 1222.42   26.64
 1171.31   26.08 1166.09   26.02 1137.63   25.70 1123.69   25.55 1133.57   25.66
 1114.40   25.44 1147.50   25.81 1089.43   25.15 1120.79   25.51 1126.02   25.57
 1178.86   26.16 1172.47   26.09 1205.57   26.46 1215.45   26.57 1310.10   27.58
 1260.74   27.06 1318.23   27.67 1427.99   28.80 1436.70   28.88 1490.13   29.42
 1443.67   28.95 1533.10   29.84 1553.43   30.04 1531.94   29.83 1538.33   29.89
 1593.50   30.42 1535.42   29.86 1519.74   29.71 1472.13   29.24 1461.09   29.13
 1407.08   28.59 1286.88   27.34 1304.88   27.53 1232.29   26.75 1179.44   26.17
 1163.76   26.00 1117.31   25.47 1077.24   25.01 1066.78   24.89 1048.78   24.68
 1020.33   24.34  981.42   23.87  922.76   23.15  969.80   23.73  923.34   23.16
  911.25   18.74  904.31   18.67  904.31   18.67  871.93   18.33  892.73   22.68
  871.42   22.40  927.29   23.11  957.24   23.48  887.54   22.61  922.68   23.05
  926.13   23.10  892.15   22.67  919.22   23.01  919.22   23.01  962.99   23.55
  965.87   23.59  974.51   23.69  993.52   23.92  954.93   23.45  991.22   23.89
 1024.62   24.29 1058.03   24.69 1032.69   24.39 1104.10   25.22 1149.60   25.73
 1154.79   25.79 1206.05   26.36 1249.82   26.83 1259.04   26.93 1326.42   27.64
 1309.14   27.46 1436.43   28.76 1506.12   29.45 1566.02   30.03 1613.25   30.48
 1570.05   30.07 1666.81   30.98 1681.21   31.12 1610.94   30.46 1582.72   30.19
 1676.03   31.07 1627.07   30.61 1589.06   30.25 1590.78   30.27 1616.70   30.51
 1543.56   29.82 1477.90   29.18 1448.52   28.88 1385.75   28.25 1293.02   27.29
 1311.45   27.48 1213.53   26.44 1194.53   26.23 1205.07   22.12 1123.49   21.35
 1088.18   21.02 1091.43   21.05 1079.25   20.93 1065.85   20.80 1060.17   25.74
 1042.66   25.53 1070.79   25.87 1121.43   26.48 1068.92   25.85 1080.17   25.98
 1076.42   25.94 1113.30   26.38 1094.55   26.16 1142.68   26.73 1190.19   27.28
 1175.18   27.10 1187.06   27.24 1277.07   28.25 1324.58   28.77 1303.95   28.55
 1393.97   29.52 1372.71   29.29 1408.35   29.67 1378.34   29.35 1383.97   29.41
 1425.22   29.85 1408.35   29.67 1357.09   29.13 1430.85   29.91 1391.47   29.49
 1382.09   29.39 1352.71   29.08 1309.58   28.61 1286.45   28.36 1252.70   27.98
 1192.06   27.30 1192.06   27.30 1199.56   27.38 1183.31   27.20 1177.68   27.13
 1176.43   27.12 1167.06   27.01 1108.30   26.32 1172.68   27.07 1170.18   27.05
 1170.18   27.05 1167.68   27.02 1219.57   27.61 1233.94   27.77 1223.94   27.66
 1277.07   28.25 1205.81   27.45 1302.70   28.54 1245.19   27.90 1267.07   28.14
 1333.96   28.88 1237.69   27.82 1275.20   28.23 1278.35   41.92 1278.35   41.92
 1239.86   41.28 1180.76   40.29 1201.37   40.64 1260.48   41.62 1124.40   39.31
 1028.18   37.59 1080.41   38.54 1041.92   37.84 1063.92   38.24 1022.68   37.49
  984.19   36.78  936.08   35.87  896.22   35.10  912.71   35.42  857.73   34.34
  896.22   35.10  898.97   35.15  835.74   33.89  875.60   34.69  837.11   33.92
  837.11   33.92  867.35   34.53  839.86   33.98  849.48   34.17  783.51   32.82
  887.97   34.94  889.35   34.96  856.36   34.31  856.36   34.31  887.97   34.94
  903.09   35.23  872.85   34.64  843.99   34.06  896.22   35.10  900.34   35.18
  909.97   35.37  938.83   35.92  964.95   36.42  982.82   36.76  916.84   35.50
 1000.69   37.09  981.44   36.73  974.57   36.60  934.71   35.84  993.81   36.96
 1002.06   37.11  956.70   36.26  949.83   36.13  974.57   36.60  960.82   36.34
  941.58   35.98                                                                