                                                                                
BANK 1 2431 487 CONST  602.500    5.000 0 0 ESD                                 
 1079.15   34.99 1017.87   33.99 1054.18   34.59  994.04   33.59 1055.32   34.61
 1008.79   33.83 1073.48   34.90  979.29   33.34 1063.26   34.74 1009.93   33.85
 1057.59   34.64  973.62   33.24 1060.99   34.70 1049.65   34.51  966.81   33.12
 1028.09   34.16  957.73   32.97 1011.06   33.87  922.55   32.36 1045.11   34.44
  991.77   33.55 1015.60   33.95 1053.05   34.57  955.46   32.93 1049.65   34.51
  994.04   33.59 1007.66   33.81  981.56   33.37 1038.30   34.33  991.77   33.55
 1048.51   34.49 1036.03   34.29 1036.03   34.29 1053.05   34.57 1024.68   34.10
  962.27   33.04 1005.39   33.78 1004.26   33.76 1046.24   34.46  942.98   32.71
  980.43   33.35 1042.84   34.40 1048.51   34.49 1033.76   34.25  963.40   33.06
 1007.66   33.81 1024.68   34.10 1011.06   33.87 1000.85   33.70 1011.06   33.87
  961.13   33.02 1029.22   34.17 1041.68   24.26 1025.86   24.08  992.51   23.68
 1032.08   24.15 1029.81   24.13  986.29   23.61 1003.25   23.81 1020.77   24.02
 1003.25   23.81 1003.25   23.81  980.64   23.54  993.64   23.70 1011.73   23.91
 1025.86   24.08 1009.47   23.89  977.25   23.50  980.08   23.54  964.82   23.35
 1009.47   23.89  957.47   23.26 1021.34   24.03 1020.21   24.01  994.77   23.71
 1018.51   23.99  983.47   23.58  988.55   23.64 1003.82   23.82  961.42   23.31
 1006.64   23.85 1022.47   24.04  946.16   23.13 1049.03   24.35 1000.99   23.79
  959.16   23.28  993.64   23.70 1002.68   23.81  999.29   23.77  968.77   23.40
 1004.95   23.83 1015.12   23.95  967.08   23.38  977.25   23.50 1002.68   23.81
  952.38   23.20  993.08   23.69  995.34   23.72  991.38   23.67 1020.77   24.02
 1000.99   23.79  994.21   23.71  999.86   23.77  966.51   23.37  985.73   23.60
 1017.61   19.48 1010.90   19.41  977.36   19.09 1014.26   19.44  958.34   18.90
  976.98   19.08 1001.21   19.32  965.43   18.97 1008.60   23.66 1037.47   24.00
  948.10   22.94 1018.04   23.77  999.72   23.56 1015.82   23.75  935.33   22.79
 1025.81   23.86 1021.37   23.81  988.07   23.42 1004.72   23.62 1018.60   23.78
 1003.05   23.60 1022.48   23.82 1018.60   23.78 1006.94   23.64 1015.27   23.74
  969.75   23.20  980.29   23.33  951.98   22.99  981.96   23.35  957.54   23.05
  955.87   23.03  973.08   23.24  977.52   23.29 1013.60   23.72  991.40   23.46
  996.39   23.52 1016.38   23.75  993.62   23.49  983.07   23.36  995.28   23.50
 1023.59   23.84  922.01   22.62  956.98   23.05 1003.05   23.60  961.98   23.11
 1007.49   23.65 1010.27   23.68  959.20   23.07 1002.50   23.59  979.18   23.31
  988.62   23.43  991.95   23.47  966.42   23.16 1005.83   23.63 1013.04   23.71
 1029.90   19.56  980.50   19.08  976.42   19.04  973.82   19.02  994.61   19.22
 1010.25   23.66 1020.78   23.78 1022.44   23.80 1041.29   24.02  999.17   23.53
  996.40   23.50 1032.42   23.92  964.81   23.12  994.18   23.47  993.07   23.46
  997.51   23.51  993.07   23.46 1027.99   23.87  961.49   23.08 1006.37   23.62
 1031.31   23.91  983.10   23.34  983.65   23.35  947.63   22.92  985.87   23.37
  996.40   23.50 1000.83   23.55  990.30   23.43  952.62   22.98  980.33   23.31
  954.28   23.00 1005.26   23.60  981.99   23.33  994.74   23.48  960.93   23.08
  961.49   23.08  979.77   23.30 1024.11   23.82  981.99   23.33  979.77   23.30
  973.12   23.22  989.75   23.42 1016.90   23.74 1010.81   23.67  962.59   23.10
 1008.59   23.64 1012.47   23.69 1016.35   23.73  967.58   23.16  977.00   23.27
  968.14   23.16  995.84   23.49  992.52   23.45  987.53   23.39 1004.16   23.59
 1001.02   19.24 1022.46   19.44  994.36   19.17  977.26   23.35  997.35   23.59
  951.03   23.04 1005.16   23.69 1002.37   23.65 1013.53   23.78  999.02   23.61
 1025.81   23.93 1026.93   23.94  994.00   23.55  988.98   23.49 1066.56   24.40
 1020.23   23.86 1008.51   23.72 1016.32   23.82 1053.16   24.24 1096.14   24.73
 1054.83   24.26 1108.97   24.88 1122.37   25.03 1135.20   25.17 1103.39   24.82
 1183.20   25.70 1285.34   26.78 1312.13   27.06 1348.40   27.43 1468.95   28.63
 1571.09   29.61 1690.53   30.72 1941.12   32.91 2119.72   34.40 2396.54   36.57
 2830.75   39.75 3358.17   43.29 3794.06   46.02 4127.81   48.00 4295.80   48.96
 4322.59   49.12 3834.80   46.26 3330.26   43.11 2641.55   38.40 2102.41   34.25
 1713.97   30.93 1365.70   27.61 1182.08   25.69 1110.09   24.89 1092.23   24.69
 1040.88   24.10 1105.62   24.84 1057.63   24.30 1043.11   24.13 1069.52   20.31
 1035.97   19.99 1040.21   20.03 1032.88   19.96 1038.93   24.71 1043.04   24.76
 1001.32   24.26 1070.07   25.08 1068.90   25.06 1110.03   25.54 1065.96   25.03
 1070.66   25.08 1113.56   25.58 1164.10   26.15 1232.26   26.91 1268.69   27.30
 1319.82   27.85 1422.07   28.91 1554.28   30.22 1784.05   32.38 1889.82   33.32
 2176.58   35.76 2583.81   38.97 3011.61   42.07 3486.41   45.26 3868.37   47.68
 4220.95   49.80 4287.94   50.20 3998.24   48.47 3591.60   45.94 2968.71   41.77
 2307.62   36.82 1928.60   33.66 1558.40   30.26 1366.83   28.34 1186.43   26.40
 1098.87   25.41 1072.43   25.10 1045.39   24.79 1021.30   24.50 1022.48   24.51
 1023.06   24.52 1026.00   24.55 1012.49   24.39 1060.67   24.97  973.70   23.92
 1056.56   24.92 1031.88   24.62 1027.77   24.58 1041.28   24.74  956.66   23.71
  944.91   23.56  996.62   24.20 1009.22   20.01  965.98   19.58 1006.05   19.98
 1015.17   20.07 1007.64   19.99  973.52   19.65 1036.42   25.29  985.19   24.66
 1001.23   24.86  999.38   24.84 1050.00   25.46 1020.99   25.10 1042.59   25.37
  966.67   24.43  998.15   24.82 1039.51   25.33 1027.78   25.19 1074.69   25.76
 1070.37   25.70 1056.17   25.53 1079.01   25.81 1127.16   26.38 1217.90   27.42
 1205.56   27.28 1253.70   27.82 1406.79   29.47 1608.02   31.51 1643.21   31.85
 1703.70   32.43 1757.41   32.94 1777.16   33.12 1635.80   31.78 1489.51   30.32
 1394.44   29.34 1251.85   27.80 1174.69   26.93 1058.02   25.56 1043.21   25.38
 1034.57   25.27 1067.28   25.67  984.57   24.65  969.75   24.47 1002.47   24.88
 1005.56   24.91 1000.00   24.85 1006.17   24.92 1012.35   25.00  946.30   24.17
 1005.56   24.91  974.07   24.52  984.57   24.65  920.99   23.84  989.51   24.71
  967.28   24.44 1002.54   20.61  958.07   20.14  983.06   20.41  991.11   20.49
  980.52   20.38  992.80   20.51  970.51   24.94 1008.97   25.43 1007.05   25.41
  985.90   25.14  964.74   24.87  984.62   25.12  917.95   24.26  937.82   24.52
  992.95   25.23 1001.92   25.34  949.36   24.67  967.95   24.91  994.87   25.25
  977.56   25.03  972.44   24.97  989.74   25.19  957.05   24.77  979.49   25.06
  991.67   25.21  934.62   24.48  931.41   24.43  923.08   24.33  934.62   24.48
  970.51   24.94  937.82   24.52  996.79   25.28  933.97   24.47  985.26   25.13
  965.38   24.88  901.92   24.04  985.26   25.13  961.54   24.83  950.64   24.69
  949.36   24.67 1017.31   25.54  950.64   24.69  925.64   24.36  933.33   24.46
  973.72   24.98  991.67   25.21  925.00   24.35  984.62   25.12  944.23   24.60
  962.18   24.84  988.46   25.17  937.18   24.51  951.92   24.70  949.36   24.67
  936.54   24.50  954.50   19.85  963.58   19.94  951.20   19.81  939.23   19.69
  959.33   24.45  952.47   24.37  949.98   24.33  948.11   24.31  962.44   24.49
  935.02   24.14  905.10   23.75  916.32   23.90  928.78   24.06  970.55   24.60
  955.59   24.41  953.09   24.37  961.20   24.48  918.81   23.93  968.68   24.57
  930.03   24.08  999.22   24.96  987.38   24.81  960.57   24.47  961.82   24.49
  997.97   24.94  966.81   24.55  987.38   24.81  922.55   23.98 1002.96   25.00
  905.10   23.75  958.70   24.45  935.02   24.14  956.21   24.41  911.95   23.84
  959.95   24.46  936.26   24.16  966.81   24.55  913.82   23.87  940.63   24.21
  954.96   24.40  968.68   24.57  976.78   24.68  921.30   23.96  966.81   24.55
  931.28   24.09  960.57   24.47  903.23   23.73  984.88   24.78  915.69   23.89
  997.97   24.94  941.87   24.23  981.77   24.74  898.24   23.66  912.79   19.23
  956.95   19.69  926.97   19.38  957.76   19.70  974.37   19.87  951.80   23.47
  941.96   23.35  929.22   23.19  956.43   23.53  942.54   23.36  916.49   23.03
  926.33   23.16  931.54   23.22  925.17   23.14  941.38   23.35  977.28   23.79
  943.70   23.37  931.54   23.22  923.43   23.12  980.17   23.82  947.75   23.42
  937.33   23.30  963.38   23.62  968.59   23.68  927.49   23.17  983.64   23.86
  957.59   23.55  925.17   23.14  973.80   23.74  932.12   23.23  954.70   23.51
  954.12   23.50  933.85   23.25  942.54   23.36  998.12   24.04  961.64   23.60
  957.01   23.54  958.17   23.55 1023.01   24.34 1007.96   24.16 1031.12   24.43
 1069.33   24.88 1139.96   25.69 1178.17   26.12 1237.23   26.76 1258.65   26.99
 1300.33   27.44 1336.81   27.82 1248.81   26.89 1193.81   26.29 1107.54   25.32
 1038.07   24.52  990.59   23.95 1002.17   24.09  926.33   23.16  949.76   19.25
  943.52   19.19  954.44   19.30  965.76   19.41  954.83   19.30  929.69   23.39
  965.58   23.84  982.64   24.05  960.28   23.77  903.80   23.06  997.35   24.22
  957.34   23.73  952.04   23.67  934.98   23.46  962.05   23.79  943.22   23.56
  917.33   23.23  939.10   23.51  933.22   23.43  911.44   23.16  933.22   23.43
  961.46   23.79  935.57   23.46  872.02   22.65  963.22   23.81  965.58   23.84
  950.28   23.65  916.15   23.22  947.93   23.62  963.81   23.81  973.82   23.94
  931.45   23.41  959.11   23.76 1024.42   24.55  997.35   24.22  930.27   23.40
  957.93   23.74  964.40   23.82  986.76   24.10 1020.30   24.50 1023.24   24.54
  985.58   24.08  963.22   23.81  969.11   23.88  980.29   24.02  976.17   23.97
  941.45   23.54  987.94   24.11  960.28   23.77  939.10   23.51  953.81   23.69
  928.51   23.37  968.52   23.87  973.19   19.44  959.98   19.31  973.58   19.45
  995.34   19.66  945.22   19.16 1004.09   24.23  927.49   23.29  985.96   24.01
  977.19   23.91  961.40   23.71  911.70   23.09  941.52   23.46  943.27   23.49
  948.54   23.55  965.50   23.76 1012.28   24.33  964.91   23.75  949.12   23.56
  954.97   23.63 1004.09   24.23  993.57   24.10  956.73   23.65  907.60   23.04
  949.12   23.56  986.55   24.02  950.29   23.57  966.67   23.78  970.18   23.82
  967.25   23.78  987.13   24.03  956.14   23.65  954.97   23.63 1011.70   24.32
  968.42   23.80  987.13   24.03  994.74   24.12 1045.61   24.73  990.64   24.07
 1045.03   24.72  991.23   24.08 1022.81   24.46 1041.52   24.68 1140.94   25.83
 1139.18   25.81 1231.58   26.84 1266.08   27.21 1343.86   28.03 1299.42   27.57
 1346.20   28.06 1271.35   27.27 1272.51   27.28 1257.89   27.12 1281.29   27.37
 1334.50   27.94 1402.91   23.42 1531.52   24.47 1672.24   25.57 1834.85   26.78
 1960.72   27.68 1972.83   27.77 1978.81   33.89 1887.68   33.10 1720.51   31.60
 1503.99   29.55 1378.61   28.29 1333.91   27.83 1226.53   26.68 1130.17   25.61
 1160.93   25.96 1116.24   25.45 1163.26   25.99 1189.96   26.28 1217.82   26.59
 1187.06   26.25 1292.70   27.39 1292.12   27.39 1373.39   28.23 1419.82   28.71
 1471.48   29.23 1574.23   30.23 1722.83   31.62 1881.87   33.05 1963.72   33.76
 2359.60   37.01 2657.96   39.28 3306.34   43.81 4042.95   48.44 5226.53   55.08
 6751.41   62.60 8774.92   71.3711172.83   80.5313622.99   88.9315424.18   94.62
16139.89   96.7915661.59   95.3513750.69   89.3411005.08   79.93 8433.03   69.96
 5961.40   58.83 4382.53   50.44 3313.89   43.86 2583.66   38.73 2201.13   35.74
 1943.98   33.59 1766.36   32.02 1639.24   30.85 1746.05   31.84 1693.82   26.45
 1706.62   26.55 1778.05   27.10 1956.85   28.43 2250.85   30.49 2492.83   32.08
 2772.66   42.33 2938.76   43.58 3000.16   44.03 2918.08   43.43 2702.21   41.79
 2324.12   38.76 1902.73   35.07 1595.73   32.11 1447.08   30.58 1278.40   28.74
 1242.85   28.34 1105.19   26.73 1120.70   26.91 1048.96   26.04 1049.60   26.05
 1012.12   25.58 1045.73   26.00 1040.56   25.93 1048.96   26.04  989.50   25.29
  983.03   25.21 1049.60   26.05 1048.96   26.04 1033.45   25.84 1030.86   25.81
 1047.02   26.01 1082.57   26.45 1059.30   26.17 1125.22   26.97 1123.28   26.94
 1087.09   26.51 1065.76   26.25 1087.09   26.51 1047.67   26.02 1049.60   26.05
 1091.61   26.56  999.84   25.42  995.31   25.36  945.55   24.72 1058.65   26.16
 1022.46   25.71  956.54   24.86 1000.48   25.43 1010.83   25.56  948.13   24.75
  996.61   25.38  966.23   24.99  936.50   24.60  985.62   25.24  989.31   20.36
  940.71   19.85  950.76   19.96  915.15   19.58  968.36   20.14  941.98   24.75
  968.63   25.09  966.68   25.07  915.33   24.39  982.29   25.27  925.08   24.52
  912.08   24.35  965.38   25.05  947.83   24.82  961.48   25.00  914.03   24.38
  950.43   24.86  929.63   24.58  971.23   25.13  944.58   24.78  956.28   24.93
  934.18   24.64  897.77   24.16  923.78   24.51  893.87   24.11  953.68   24.90
  964.73   25.04  943.93   24.77  904.27   24.25  940.03   24.72  922.48   24.49
  916.63   24.41  913.38   24.37  951.08   24.87  964.73   25.04  953.68   24.90
  918.58   24.44  963.43   25.03  912.08   24.35  911.43   24.34  972.53   25.14
  944.58   24.78  933.53   24.63  901.02   24.20  971.88   25.14  921.83   24.48
  953.03   24.89  945.88   24.80  975.78   25.19  977.73   25.21  917.28   24.42
  932.88   24.63  913.38   24.37  975.78   25.19  921.50   19.84  959.52   20.25
  931.33   19.95  939.02   20.03  949.60   24.05  930.11   23.80  892.34   23.31
  913.66   23.59  911.83   23.57  891.12   23.30  910.61   23.55  930.71   23.81
  910.00   23.54  890.51   23.29  944.72   23.99  914.27   23.60  903.30   23.46
  919.75   23.67  925.84   23.75  911.22   23.56  959.95   24.18  930.11   23.80
  960.56   24.19  931.32   23.82  953.25   24.10  911.22   23.56  955.69   24.13
  893.56   23.33  927.06   23.76  952.64   24.09  956.91   24.14  940.46   23.93
  950.81   24.07  943.51   23.97  939.24   23.92  945.94   24.00  980.66   24.44
  982.49   24.46 1058.63   25.39  996.50   24.64 1053.14   25.33 1109.18   25.99
 1165.83   26.65 1263.29   27.74 1387.54   29.07 1518.50   30.41 1620.22   31.41
 1689.05   32.08 1793.21   33.05 1735.95   32.52 1576.37   30.99 1544.69   30.67
 1395.46   29.15 1243.79   27.52 1202.52   21.93 1079.71   20.78 1052.51   20.52
 1046.50   20.46 1057.71   20.57 1002.71   24.57 1067.15   25.35  985.85   24.37
 1017.16   24.75 1059.92   25.26 1091.84   25.64 1053.90   25.19 1086.42   25.58
 1130.38   26.09 1256.85   27.51 1438.72   29.44 1563.38   30.68 1850.65   33.38
 2216.20   36.53 2581.15   39.43 2914.78   41.90 3184.58   43.79 3258.66   44.30
 3232.76   44.12 2844.32   41.39 2466.73   38.54 2033.12   34.99 1754.29   32.50
 1475.46   29.81 1268.29   27.64 1201.45   26.90 1076.78   25.47 1028.61   24.89
 1058.12   25.24 1003.91   24.59 1010.54   24.67 1002.71   24.57  965.37   24.11
  959.35   24.04  988.86   24.40  948.51   23.90  939.48   23.79  955.13   23.98
  968.38   24.15  968.38   24.15  931.65   23.69  927.43   23.63  976.21   24.25
  982.84   24.33  932.85   23.70  973.80   24.22  967.78   24.14  952.12   23.95
  996.09   24.49 1009.43   20.34  997.13   20.22  968.84   19.93  980.32   20.05
  993.85   20.19  981.97   24.50 1003.97   24.77 1019.25   24.96 1000.31   24.72
 1003.97   24.77 1033.30   25.13 1087.69   25.78 1072.41   25.60 1068.74   25.56
 1199.51   27.07 1136.57   26.35 1203.79   27.12 1280.78   27.98 1344.33   28.66
 1354.11   28.77 1454.93   29.82 1606.48   31.33 1700.58   32.24 1852.73   33.65
 2015.28   35.09 2469.91   38.85 3011.30   42.90 3534.37   46.47 4201.04   50.67
 4734.49   53.79 5296.67   56.89 5431.10   57.61 5068.13   55.65 4463.18   52.22
 3833.79   48.40 3049.19   43.17 2473.57   38.88 1986.56   34.84 1673.69   31.98
 1500.15   30.28 1354.72   28.77 1227.62   27.39 1194.62   27.02 1161.63   26.64
 1099.30   25.92 1091.96   25.83 1041.25   25.22 1019.86   24.96  977.70   24.44
 1018.64   24.95  992.97   24.63  986.25   24.55  992.36   24.63  981.36   24.49
  968.09   19.93  937.31   19.61  948.39   19.73  997.64   20.23  963.99   19.89
  977.99   24.89 1038.16   25.64  983.06   24.95  982.42   24.95 1055.27   25.85
 1060.97   25.92 1100.24   26.40 1129.37   26.75 1244.66   28.08 1339.67   29.13
 1494.22   30.76 1641.81   32.25 1900.87   34.70 2149.17   36.90 2325.26   38.38
 2424.70   39.19 2443.07   39.34 2319.56   38.33 2044.66   35.99 1839.43   34.13
 1547.43   31.31 1393.51   29.71 1256.69   28.21 1154.71   27.04 1054.63   25.85
 1074.27   26.09  984.32   24.97  974.19   24.84  950.75   24.54  977.99   24.89
 1005.86   25.24  895.65   23.82  961.52   24.68  924.15   24.19  975.46   24.86
 1000.16   25.17 1019.79   25.42 1041.96   25.69 1109.74   26.51 1044.50   25.72
 1100.24   26.40 1105.30   26.46 1035.00   25.60 1070.47   26.04 1022.96   25.45
  941.25   24.42  980.52   24.92  901.98   23.90  927.32   24.24  923.61   19.98
  912.80   19.86  915.40   19.89  908.48   19.82  881.25   19.52  919.72   24.48
  939.91   24.74  914.51   24.41  916.46   24.43  904.74   24.28  926.23   24.56
  917.11   24.44  894.32   24.14  906.69   24.30  908.00   24.32  884.55   24.00
  913.21   24.39  876.73   23.90  921.02   24.49  924.93   24.55  886.50   24.03
  891.71   24.10  952.94   24.91  875.43   23.88  897.57   24.18  937.96   24.72
  930.14   24.61  891.06   24.09  876.73   23.90  911.25   24.36  890.41   24.08
  859.14   23.66  921.02   24.49  911.90   24.37  928.84   24.60  917.77   24.45
  892.36   24.11  905.39   24.28  898.88   24.20  953.59   24.92  940.56   24.75
  920.37   24.48  936.00   24.69  958.15   24.98 1014.82   25.71 1029.15   25.89
 1108.61   26.87 1080.61   26.53 1113.17   26.93 1160.07   27.49 1154.21   27.42
 1143.14   27.29 1128.81   27.12 1055.20   26.22 1045.76   21.12  994.56   20.60
  954.03   20.18  937.39   20.00  931.84   19.94  915.45   24.35  951.73   24.83
  920.63   24.42  953.68   24.86  881.11   23.89  937.48   24.64  938.78   24.66
  943.31   24.72  942.01   24.70  925.82   24.49  906.38   24.23  977.00   25.16
  931.00   24.56  951.73   24.83  961.45   24.96  949.14   24.80  942.66   24.71
  955.62   24.88  966.63   25.03  967.28   25.03  965.99   25.02 1001.62   25.47
 1032.72   25.87 1014.58   25.64 1034.66   25.89 1150.63   27.30 1190.80   27.78
 1223.84   28.16 1277.62   28.77 1438.94   30.53 1561.39   31.81 1611.92   32.32
 1679.30   32.98 1681.89   33.01 1604.79   32.24 1470.68   30.87 1391.64   30.03
 1368.97   29.78 1279.56   28.79 1232.91   28.26 1222.55   28.14 1172.66   27.56
 1171.36   27.55 1191.45   27.78 1230.97   28.24 1270.49   28.69 1216.72   28.08
 1269.19   28.68 1350.18   29.58 1370.83   23.90 1455.83   24.63 1634.17   26.09
 1770.00   27.16 1952.50   28.52 2218.02   36.50 2391.59   37.90 2556.16   39.18
 2730.33   40.49 2923.12   41.90 3193.39   43.79 3373.57   45.01 3822.82   47.92
 4305.11   50.85 4706.91   53.17 4757.96   53.46 4696.10   53.11 4340.54   51.06
 3934.53   48.61 3348.35   44.84 2782.58   40.88 2365.17   37.69 1988.59   34.56
 1731.53   32.25 1505.11   30.07 1428.83   29.29 1324.92   28.21 1305.71   28.00
 1252.85   27.43 1170.57   26.52 1105.11   25.76 1103.30   25.74 1061.26   25.25
 1043.24   25.03 1016.22   24.71  957.36   23.98 1034.23   24.92 1046.25   25.07
 1025.83   24.82 1000.60   24.51  949.55   23.88  963.96   24.06 1012.61   24.66
  971.17   24.15  971.17   24.15  967.57   24.11  995.20   24.45  978.98   24.25
  978.98   24.25 1040.84   25.00 1048.05   25.09 1147.15   26.25 1085.89   25.54
 1157.55   21.65 1156.74   21.65 1170.11   21.77 1111.79   21.22 1102.47   21.13
 1072.50   20.84 1032.22   24.93 1019.57   24.78 1002.71   24.57  939.48   23.79
  922.61   23.57  930.44   23.67  968.99   24.16  947.31   23.89  978.02   24.27
  938.87   23.78  947.91   23.89  914.18   23.46  909.36   23.40  998.49   24.52
 1048.48   25.13 1014.75   24.72 1085.22   25.56 1090.64   25.63 1234.57   27.27
 1274.92   27.71 1419.45   29.24 1586.87   30.91 1716.35   32.15 1996.39   34.67
 2289.07   37.13 2504.67   38.84 2633.54   39.82 2613.67   39.67 2536.59   39.08
 2375.79   37.83 2039.75   35.05 1845.23   33.34 1574.83   30.80 1486.30   29.92
 1278.53   27.75 1202.05   26.91 1113.52   25.90 1052.09   25.17 1043.66   25.07
 1017.16   24.75  919.00   23.53  977.42   24.26  956.94   24.01  925.62   23.61
  899.73   23.28  929.84   23.66  880.46   23.03  951.52   23.94  897.98   19.11
  894.31   19.08  876.82   18.89  892.28   19.05  891.47   19.05  879.67   18.92
  896.17   23.66  920.53   23.98  878.06   23.42  855.58   23.12  930.52   24.11
  841.84   22.93  863.08   23.22  900.55   23.72  899.30   23.70  921.16   23.98
  927.40   24.07  893.05   23.62  879.94   23.44  890.55   23.58  890.55   23.58
  898.05   23.68  871.19   23.33  853.08   23.08  893.68   23.62  901.17   23.72
  898.67   23.69  854.96   23.11  892.43   23.61  886.18   23.53  889.31   23.57
  873.69   23.36  921.16   23.98  888.06   23.55  866.82   23.27  899.30   23.70
  877.44   23.41  903.04   23.75  923.65   24.02  939.27   24.22  934.27   24.15
  982.36   24.77 1006.09   25.07  933.65   24.15  934.89   24.16  987.35   24.83
 1027.32   25.33 1081.03   25.98  977.99   24.71 1087.28   26.06 1093.52   26.13
 1073.54   25.89 1136.61   26.64 1195.32   27.32 1187.88   22.48 1274.64   23.28
 1414.99   24.53 1523.44   25.45 1531.10   25.52 1721.12   33.35 1758.60   33.71
 1979.64   35.77 2216.19   37.85 2388.11   39.29 2642.11   41.32 2799.81   42.54
 3069.96   44.54 3298.76   46.17 3561.80   47.98 3456.46   47.26 3367.91   46.66
 3089.35   44.68 2786.23   42.44 2443.04   39.74 2084.99   36.71 1784.46   33.96
 1564.71   31.80 1378.57   29.85 1255.13   28.48 1141.38   27.16 1085.15   26.48
 1083.86   26.47 1052.19   26.08 1003.72   25.47 1011.47   25.57  969.46   25.03
  950.07   24.78  938.44   24.63  930.04   24.52  960.41   24.91  953.95   24.83
  927.45   24.48  893.84   24.04  902.25   24.15  907.42   24.22  909.36   24.24
  891.26   24.00  945.55   24.72  910.00   24.25  877.04   23.81  849.89   23.44
  843.43   23.35  900.31   24.12  918.40   24.36  886.73   23.94  882.21   23.88
  938.44   24.63  883.50   23.90  921.04   20.33  912.97   20.24  971.74   20.88
  974.88   20.91  958.28   20.73 1000.87   26.44 1026.02   26.77  986.90   26.25
 1026.72   26.78 1074.21   27.39 1137.77   28.19 1181.77   28.73 1241.84   29.45
 1341.71   30.61 1398.29   31.25 1607.82   33.51 1793.61   35.39 2112.10   38.41
 2261.57   39.74 2537.45   42.10 2711.37   43.52 2756.07   43.87 2740.70   43.75
 2490.66   41.71 2385.19   40.82 2093.94   38.24 1862.76   36.07 1605.03   33.48
 1461.15   31.95 1359.87   30.82 1234.85   29.37 1129.39   28.09 1139.86   28.22
 1007.16   26.52 1027.41   26.79  974.33   26.09  997.38   26.39 1004.37   26.49
  978.52   26.14 1042.08   26.98  942.90   25.66  959.66   25.89  958.97   25.88
  972.24   26.06  975.03   26.10  967.35   25.99  923.35   25.40  914.27   25.27
  961.06   25.91  938.71   25.61 1007.86   26.53  972.94   26.07 1014.84   26.62
 1033.70   26.87 1000.87   26.44  975.37   20.71 1031.66   21.30 1050.13   21.49
 1021.11   21.19 1087.93   26.72 1110.89   27.00 1138.45   27.33 1101.71   26.89
 1190.94   27.95 1199.48   28.05 1275.59   28.93 1276.25   28.94 1386.48   30.16
 1513.12   31.51 1591.86   32.32 1749.34   33.88 1898.29   35.29 1893.70   35.25
 1854.33   34.88 1851.05   34.85 1772.31   34.10 1675.85   33.16 1633.20   32.74
 1509.84   31.48 1550.52   31.90 1502.62   31.40 1437.01   30.71 1501.31   31.39
 1517.72   31.56 1574.80   32.15 1635.83   32.76 1751.97   33.91 1964.57   35.90
 2210.63   38.09 2476.38   40.31 2707.35   42.15 3099.08   45.09 3505.91   47.96
 3919.29   50.71 4119.42   51.99 4055.77   51.59 3994.75   51.20 3576.12   48.44
 3433.73   47.47 3072.83   44.90 2764.44   42.59 2524.93   40.70 2286.09   38.73
 2088.58   37.02 2012.47   36.34 1967.19   35.93 2067.59   36.83 2021.00   36.42
 1926.07   28.77 1939.82   28.88 1844.40   28.16 1698.69   27.02 1671.18   26.80
 1521.81   30.42 1426.96   29.45 1351.57   28.67 1292.60   28.03 1142.42   26.36
 1156.41   26.52 1071.29   25.52 1076.76   25.59 1050.62   25.27 1098.65   25.85
 1080.41   25.63 1124.18   26.14 1118.10   26.07 1139.38   26.32 1200.18   27.01
 1236.05   27.41 1295.03   28.06 1311.45   28.24 1295.03   28.06 1281.05   27.91
 1293.21   28.04 1202.61   27.04 1112.02   26.00 1112.02   26.00 1056.70   25.35
 1009.27   24.77  980.09   24.41  948.47   24.01  933.88   23.83  911.38   23.54
  936.92   23.87  899.83   23.39  896.79   23.35  846.94   22.69  911.99   23.55
  915.03   23.59  873.69   23.05  846.94   22.69  844.51   22.66  897.40   23.36
  873.69   23.05  857.88   22.84  885.24   23.20  850.59   22.74  834.17   22.52
  894.97   23.33  874.91   23.06  865.79   22.94  845.11   22.67  856.65   18.62
  863.94   18.70  896.31   19.04  887.00   18.95  853.01   18.58  906.02   19.15
  926.34   23.85  921.42   23.78  915.90   23.71  901.78   23.53  981.58   24.55
  915.29   23.70  906.08   23.58  923.88   23.81  944.14   24.07  944.14   24.07
  918.35   23.74  886.43   23.33  904.85   23.57  893.19   23.42  903.01   23.54
  917.74   23.74  896.26   23.46  877.23   23.21  916.51   23.72  919.58   23.76
  877.84   23.21  883.36   23.29  917.74   23.74  939.84   24.02 1013.51   24.94
  985.27   24.59 1055.25   25.45 1100.06   25.99 1101.29   26.00 1129.53   26.33
 1313.69   28.40 1324.13   28.51 1338.24   28.66 1295.27   28.20 1321.67   28.48
 1267.03   27.89 1203.81   27.18 1131.98   26.36 1129.53   26.33 1096.99   25.95
 1036.83   25.23 1061.39   25.53  963.78   24.32  942.30   24.05  912.83   23.67
  950.89   24.16  949.66   24.14  941.07   24.04  920.20   23.77  909.42   19.13
  956.92   19.63  946.46   19.52  904.99   19.09  895.63   23.08  859.95   22.61
  857.57   22.58  858.16   22.59  886.11   22.96  840.92   22.36  851.62   22.50
  830.21   22.22  789.18   21.66  837.35   22.32  840.92   22.36  836.75   22.31
  808.80   21.93  841.51   22.37  838.54   22.33  815.94   22.03  831.40   22.24
  814.75   22.01  791.56   21.70  792.74   21.71  787.39   21.64  828.43   22.20
  788.58   21.66  825.45   22.16  848.05   22.46  830.21   22.22  818.32   22.06
  855.19   22.55  827.83   22.19  828.43   22.20  842.70   22.39  828.43   22.20
  847.46   22.45  830.21   22.22  837.35   22.32  873.62   22.79  798.69   21.79
  864.70   22.68  859.35   22.61  856.97   22.58  862.92   22.65  870.06   22.75
  909.90   23.26  883.14   22.92  863.51   22.66  869.46   22.74  928.34   23.50
  921.20   23.41  912.88   23.30  916.44   23.35  975.53   19.90  986.09   20.01
  982.43   19.97 1047.01   20.62 1024.61   25.03 1109.58   26.04 1167.66   26.72
 1211.68   27.22 1256.92   27.72 1352.28   28.75 1427.48   29.54 1492.28   30.20
 1592.54   31.20 1697.69   32.22 1835.24   33.50 1968.52   34.69 2027.20   35.20
 2067.55   35.55 2074.28   35.61 1992.97   34.91 1915.94   34.22 1815.07   33.31
 1607.83   31.35 1493.50   30.22 1377.96   29.02 1243.47   27.57 1167.05   26.71
 1138.32   26.38 1097.97   25.91 1074.74   25.63  994.04   24.65  997.71   24.70
  959.19   24.22  917.62   23.69  916.40   23.67  915.18   23.65  917.62   23.69
  907.84   23.56  914.57   23.65  919.46   23.71  856.49   22.88  934.13   23.90
  931.07   23.86  935.96   23.92  924.35   23.77  981.81   24.50  965.92   24.30
 1010.55   24.86 1053.34   25.38 1097.36   25.90 1109.58   26.04 1140.15   26.40
 1154.21   26.56 1108.75   21.20 1106.72   21.18 1106.72   21.18 1114.02   21.25
 1096.99   21.09 1004.97   20.18  998.29   24.89  959.21   24.40  973.48   24.58
  944.32   24.21  951.14   24.29  969.13   24.52  951.76   24.30  970.37   24.54
  967.89   24.51  982.16   24.69 1008.84   25.02 1043.59   25.45 1023.11   25.19
 1045.45   25.47 1072.75   25.80 1069.02   25.75 1041.72   25.42 1064.68   25.70
 1052.89   25.56 1033.66   25.32  980.92   24.67  991.47   24.80  935.63   24.09
  944.94   24.21  935.63   24.09  916.40   23.84  953.00   24.32  874.21   23.29
  901.50   23.65  882.89   23.40  872.34   23.26  880.41   23.37  877.31   23.33
  856.21   23.05  835.74   22.77  861.80   23.12  859.93   23.10  899.64   23.63
  837.60   22.80  850.01   22.96  854.35   23.02  872.34   23.26  864.90   23.17
  902.75   23.67  900.26   23.63  885.37   23.44  931.29   24.04  929.42   24.01
  980.02   20.04  986.58   20.11  979.61   20.04 1022.65   20.47 1079.62   21.04
 1157.09   21.78 1192.89   26.81 1254.97   27.50 1242.92   27.37 1282.70   27.81
 1380.35   28.85 1400.24   29.05 1403.86   29.09 1449.07   29.55 1493.07   30.00
 1554.55   30.61 1420.13   29.26 1424.95   29.31 1467.75   29.74 1350.81   28.53
 1267.63   27.64 1264.01   27.60 1204.34   26.94 1142.86   26.25 1118.14   25.96
 1052.44   25.19 1092.83   25.67 1034.96   24.98 1007.84   24.65 1038.58   25.02
 1008.44   24.65 1017.48   24.77 1072.33   25.42 1022.30   24.82 1045.81   25.11
 1058.47   25.26 1047.62   25.13 1101.87   25.77 1086.80   25.59 1140.45   26.22
 1071.13   25.41 1022.91   24.83 1025.32   24.86  974.68   24.24  995.18   24.49
  964.44   24.11  954.79   23.99  924.05   23.60  931.28   23.69  963.83   24.10
  940.93   23.82  926.46   23.63  896.32   23.24  957.81   19.48  994.65   19.85
  981.58   19.72  989.50   19.80 1024.36   20.14 1035.85   20.26 1075.88   25.21
 1114.85   25.66 1110.13   25.60 1232.36   26.98 1312.67   27.84 1346.91   28.20
 1498.67   29.75 1590.79   30.65 1783.88   32.46 1876.00   33.28 2011.22   34.46
 2149.99   35.63 2265.13   36.57 2354.89   37.29 2436.37   37.93 2418.66   37.79
 2455.27   38.08 2276.94   36.67 2216.12   36.17 2037.20   34.68 1910.25   33.59
 1734.87   32.01 1608.50   30.82 1512.84   29.89 1384.71   28.59 1265.43   27.34
 1212.87   26.76 1174.49   26.33 1075.88   25.21 1033.95   24.71  988.49   24.16
  957.78   23.78  967.23   23.90  951.87   23.71  900.50   23.06  885.74   22.87
  889.28   22.92  881.61   22.82  881.02   22.81  869.21   22.66  834.96   22.20
  888.69   22.91  872.16   22.69  846.18   22.35  817.24   21.97  840.86   22.28
  803.66   21.78  822.56   22.04  859.76   22.53  830.82   18.10  841.86   18.22
  826.49   18.05  858.80   18.40  828.46   18.07  825.51   21.98  802.69   21.67
  803.86   21.69  841.30   22.19  854.18   22.35  824.92   21.97  829.60   22.03
  812.05   21.80  811.47   21.79  851.84   22.32  863.54   22.48  864.12   22.48
  844.81   22.23  825.51   21.98  824.34   21.96  825.51   21.98  833.70   22.09
  833.11   22.08  819.66   21.90  833.11   22.08  875.24   22.63  878.75   22.67
  870.56   22.57  900.98   22.96  929.65   23.32  899.22   22.94  899.81   22.94
  905.66   23.02  920.29   23.20  931.99   23.35  963.00   23.74 1020.33   24.43
  984.64   24.00 1026.18   24.50 1078.25   25.12 1087.61   25.23 1153.72   25.98
 1239.73   26.93 1281.85   27.39 1356.15   28.17 1480.18   29.43 1545.71   30.07
 1642.24   31.00 1814.25   32.58 1883.28   33.19 1959.92   33.86 2054.70   34.67
 2005.56   34.25 2058.07   28.61 2080.75   28.77 1986.48   28.11 1938.74   27.77
 1807.08   26.81 1738.55   32.47 1639.67   31.54 1511.68   30.28 1458.30   29.74
 1309.68   28.19 1281.77   27.88 1241.73   27.45 1173.79   26.68 1153.78   26.46
 1151.96   26.43 1124.05   26.11 1125.87   26.13 1020.93   24.89 1100.39   25.84
 1089.48   25.71 1136.79   26.26 1110.10   25.95 1073.10   25.51 1062.78   25.39
 1042.77   25.15 1045.19   25.18 1010.62   24.76  996.06   24.58 1039.13   25.11
  957.84   24.10  993.02   24.54  976.65   24.34  905.67   23.44  899.00   23.35
  888.08   23.21  909.31   23.49  878.98   23.09  894.75   23.30  886.87   23.19
  871.70   23.00  866.24   22.92  899.61   23.36  906.28   23.45  920.23   23.63
  917.20   23.59  874.73   23.04  903.85   23.42  903.85   23.42  857.14   22.80
  937.82   23.85  909.31   23.49  926.90   23.71  906.28   23.45  939.64   23.87
  960.87   24.14  985.82   19.91 1011.16   20.17 1024.43   20.30 1015.18   20.21
 1094.42   20.98 1087.98   25.74 1153.12   26.50 1171.39   26.71 1244.44   27.53
 1265.14   27.75 1341.25   28.58 1388.13   29.07 1449.01   29.70 1469.10   29.91
 1657.23   31.76 1624.96   31.45 1680.37   31.99 1694.98   32.12 1653.58   31.73
 1632.27   31.52 1610.96   31.32 1577.47   30.99 1509.28   30.31 1424.05   29.44
 1380.21   28.99 1263.32   27.73 1255.40   27.65 1190.87   26.93 1110.50   26.00
 1125.11   26.17 1005.78   24.75 1033.18   25.08 1005.78   24.75 1026.48   25.00
  990.56   24.56  948.55   24.03  964.99   24.24  972.91   24.34  950.99   24.06
  957.08   24.14 1033.18   25.08 1038.66   25.15 1037.44   25.13 1027.70   25.01
 1059.36   25.40 1129.38   26.22 1137.90   26.32 1137.90   26.32 1163.47   26.61
 1193.91   26.96 1202.44   27.06 1279.15   27.91 1283.41   27.95 1361.95   28.80
 1323.42   22.90 1339.28   23.04 1401.90   23.57 1401.51   23.57 1362.43   28.16
 1344.39   27.97 1326.35   27.78 1360.69   28.14 1367.67   28.21 1318.20   27.70
 1354.87   28.08 1345.56   27.98 1372.33   28.26 1387.46   28.42 1479.99   29.35
 1525.39   29.80 1605.70   30.57 1658.08   31.06 1648.77   30.98 1774.48   32.14
 1797.18   32.34 1904.26   33.29 1777.39   32.16 1787.28   32.25 1748.87   31.90
 1669.72   31.17 1687.18   31.34 1599.88   30.51 1476.50   29.31 1461.95   29.17
 1390.95   28.45 1315.87   27.67 1250.11   26.97 1197.73   26.40 1166.30   26.05
 1068.53   24.94 1072.02   24.98 1039.43   24.60  982.39   23.91 1001.60   24.14
  974.83   23.82  935.25   23.33  959.12   23.63  924.78   23.20  892.77   22.79
  911.39   23.03  871.24   22.52  903.83   22.94  930.60   23.27  927.69   23.24
  899.75   22.88  946.31   23.47  907.32   22.98  907.32   22.98  935.41   19.31
  921.05   19.16  952.55   19.49  949.36   19.46  946.97   19.43  990.27   24.35
 1011.23   24.61 1033.98   24.88 1086.66   25.51 1039.96   24.95 1053.14   25.11
 1065.11   25.25 1123.19   25.93 1068.10   25.29 1101.63   25.68 1139.35   26.12
 1165.10   26.41 1142.34   26.15 1163.30   26.39 1168.69   26.45 1190.24   26.69
 1184.85   26.63 1206.41   26.88 1228.56   27.12 1268.07   27.55 1262.69   27.50
 1367.46   28.61 1427.33   29.23 1520.73   30.17 1490.20   29.87 1621.91   31.16
 1619.52   31.14 1803.32   32.86 1896.72   33.70 1993.71   34.55 2077.53   35.27
 2264.33   36.82 2367.91   37.65 2606.80   39.51 2737.31   40.48 2878.01   41.51
 3115.10   43.19 3079.78   42.94 3136.06   43.33 3221.07   43.91 3200.12   43.77
 3164.20   43.53 3103.73   43.11 2922.32   41.83 2855.86   41.35 2655.29   39.87
 2518.78   38.83 2241.58   36.63 2176.32   36.10 2025.06   28.84 1891.15   27.87
 1753.54   26.84 1652.08   26.05 1564.18   25.35 1415.06   30.18 1448.52   30.53
 1335.91   29.32 1270.91   28.60 1239.38   28.24 1160.88   27.33 1122.91   26.88
 1111.97   26.75 1041.83   25.89 1073.36   26.28 1032.82   25.78 1092.66   26.52
 1032.18   25.77 1027.67   25.72 1018.66   25.60 1039.25   25.86 1057.27   26.08
 1072.07   26.27 1079.79   26.36 1029.60   25.74 1061.13   26.13 1049.55   25.99
 1079.15   26.35 1061.13   26.13 1080.44   26.37 1029.60   25.74 1016.09   25.57
 1026.38   25.70 1029.60   25.74 1041.83   25.89  990.35   25.24 1017.37   25.59
  998.71   25.35  971.69   25.01  950.45   24.73  994.21   25.29  976.83   25.07
  930.50   24.47  944.66   24.66  979.41   25.10  985.84   25.19  946.59   24.68
  958.17   24.83  904.76   24.13  963.32   24.90  968.47   24.96  943.37   24.64
  940.15   24.60  952.74   19.87  936.15   19.70  926.20   19.60  931.18   19.65
  997.51   20.34  962.27   19.97 1018.34   25.05 1035.60   25.27 1040.53   25.33
 1042.38   25.35 1073.20   25.72 1064.57   25.62 1092.93   25.96 1176.76   26.93
 1215.60   27.37 1219.29   27.42 1209.43   27.30 1227.31   27.51 1271.69   28.00
 1328.40   28.62 1346.89   28.81 1349.36   28.84 1372.78   29.09 1320.39   28.53
 1354.29   28.89 1322.24   28.55 1332.10   28.66 1335.80   28.70 1353.68   28.89
 1280.32   28.09 1301.28   28.32 1301.90   28.33 1334.57   28.68 1277.24   28.06
 1219.29   27.42 1257.51   27.84 1291.42   28.21 1300.05   28.31 1307.44   28.39
 1310.53   28.42 1370.32   29.06 1384.50   29.21 1446.76   29.86 1488.06   30.29
 1486.21   30.27 1636.62   31.76 1631.68   31.71 1776.54   33.09 1801.20   33.32
 1770.38   33.04 1848.05   33.75 1871.47   33.97 1959.62   34.76 1892.43   34.15
 1949.14   34.66 1939.06   27.93 1923.38   27.81 1868.68   27.42 1877.53   27.48
 1814.78   27.02 1768.87   32.05 1689.90   31.33 1647.50   30.93 1526.13   29.77
 1519.16   29.70 1513.36   29.65 1421.60   28.73 1349.59   28.00 1320.56   27.69
 1307.20   27.55 1317.07   27.66 1321.72   27.70 1232.87   26.76 1243.90   26.88
 1227.06   26.69 1212.54   26.54 1200.35   26.40 1227.06   26.69 1203.25   26.43
 1277.58   27.24 1278.16   27.24 1252.03   26.96 1313.01   27.61 1387.34   28.38
 1350.17   28.00 1430.31   28.82 1490.71   29.42 1544.13   29.95 1572.59   30.22
 1570.85   30.20 1615.56   30.63 1684.09   31.27 1660.86   31.06 1742.16   31.81
 1701.51   31.43 1664.92   31.09 1703.83   31.46 1658.54   31.03 1639.37   30.85
 1653.31   30.99 1534.84   29.85 1484.32   29.36 1509.29   29.61 1385.02   28.36
 1286.30   27.33 1295.59   27.43 1238.10   26.81 1246.23   26.90 1171.89   26.09
 1139.06   20.95 1115.54   20.74 1093.19   20.53 1054.64   20.16 1106.41   25.24
 1068.39   24.81 1020.59   24.24 1011.38   24.14  991.22   23.89  965.87   23.59
  982.00   23.78  996.98   23.96  994.10   23.93  964.72   23.57 1025.77   24.31
  987.76   23.85 1015.98   24.19  991.22   23.89  989.49   23.87 1022.32   24.27
 1054.57   24.65 1056.88   24.67 1049.39   24.58 1091.43   25.07 1116.20   25.36
 1122.53   25.43 1148.45   25.72 1131.17   25.52 1187.04   26.15 1228.51   26.60
 1235.42   26.67 1299.93   27.36 1336.21   27.74 1360.98   28.00 1412.81   28.53
 1489.99   29.29 1570.63   30.08 1607.49   30.43 1670.84   31.02 1676.60   31.07
 1725.56   31.53 1764.72   31.88 1777.39   32.00 1767.60   31.91 1830.38   32.47
 1791.22   32.12 1775.67   31.98 1786.61   32.08 1727.86   31.55 1677.75   31.09
 1685.24   31.15 1660.48   30.93 1539.52   29.78 1535.46   24.96 1480.26   24.51
 1474.18   24.46 1370.27   23.58 1311.42   23.07 1293.56   22.91 1293.95   28.44
 1293.33   28.43 1267.07   28.14 1225.82   27.68 1247.07   27.92 1170.81   27.05
 1177.06   27.13 1148.93   26.80 1157.68   26.90 1178.93   27.15 1157.06   26.89
 1210.81   27.51 1232.69   27.76 1158.31   26.91 1240.19   27.84 1228.94   27.72
 1235.82   27.79 1204.56   27.44 1335.21   28.89 1425.85   29.85 1408.97   29.68
 1471.48   30.33 1506.49   30.69 1532.11   30.95 1469.60   30.31 1485.23   30.47
 1572.12   31.35 1521.49   30.84 1518.99   30.81 1462.10   30.23 1437.10   29.97
 1457.73   30.19 1449.60   30.10 1505.86   30.68 1454.60   30.15 1428.97   29.89
 1342.08   28.96 1337.08   28.91 1342.08   28.96 1285.20   28.34 1334.58   28.88
 1266.45   28.14 1232.07   27.75 1247.07   27.92 1300.20   28.51 1245.82   27.91
 1240.19   27.84 1239.57   27.84 1251.45   27.97 1244.57   27.89 1293.33   28.43
 1348.96   29.04 1335.83   28.90 1275.82   28.24 1377.32   43.51 1421.31   44.20
 1419.93   44.18 1411.68   44.05 1454.30   44.71 1463.92   44.86 1437.80   44.46
 1417.18   44.14 1388.32   43.68 1323.71   42.66 1325.09   42.68 1424.05   44.24
 1267.35   41.74 1283.85   42.01 1211.00   40.80 1125.77   39.34 1211.00   40.80
 1145.02   39.67 1094.16   38.78 1029.55   37.62 1112.03   39.10 1066.67   38.29
 1025.43   37.54 1030.93   37.64 1006.19   37.19 1007.56   37.22  969.07   36.50
  912.71   35.42  922.34   35.61  962.20   36.37  868.73   34.56  942.96   36.00
  930.58   35.77  916.84   35.50  865.98   34.50  863.23   34.45  959.45   36.32
  941.58   35.98  938.83   35.92  966.32   36.45  980.07   36.70  955.33   36.24
 1013.06   37.32 1062.54   38.22 1019.93   37.44 1077.66   38.49 1033.68   37.69
 1017.18   37.39 1063.92   38.24 1068.04   38.32 1080.41   38.54 1105.15   38.98
 1080.41   38.54                                                                