                                                                                
BANK 1 2431 487 CONST  602.500    5.000 0 0 ESD                                 
  541.28   24.78  561.70   25.25  557.16   25.14  559.43   25.20  559.43   25.20
  583.26   25.73  548.09   24.94  592.34   25.93  514.04   24.15  539.01   24.73
  526.52   24.44  576.45   25.58  508.37   24.02  526.52   24.44  568.51   25.40
  549.22   24.96  551.49   25.02  569.65   25.42  537.87   24.71  563.97   25.30
  594.61   25.98  557.16   25.14  549.22   24.96  552.62   25.04  612.77   26.37
  585.53   25.78  635.46   26.85  541.28   24.78  570.78   25.45  612.77   26.37
  610.50   26.32  590.07   25.88  638.87   26.92  669.50   27.56  601.42   26.12
  586.67   25.80  647.94   27.12  619.57   26.52  685.39   27.89  666.10   27.49
  743.26   29.04  739.86   28.98  736.45   28.91  709.22   28.37  719.43   28.57
  787.52   29.89  759.15   29.35  829.50   30.68  898.72   31.93  817.02   30.45
  793.19   30.00  970.21   33.18 1034.34   24.18 1184.68   25.88 1315.81   27.27
 1313.55   27.25 1436.77   28.50 1575.81   29.84 1673.59   30.76 2060.19   34.12
 2404.41   36.86 2387.45   36.73 2255.19   35.70 2079.41   34.28 1894.02   32.72
 1721.63   31.19 1499.51   29.11 1219.73   26.26  925.25   22.87  782.82   21.03
  681.08   19.62  616.65   18.67  652.82   19.21  591.21   18.28  561.25   17.81
  608.73   18.55  588.38   18.24  584.43   18.17  577.65   18.07  520.56   17.15
  561.25   17.81  573.12   18.00  581.04   18.12  578.78   18.09  552.21   17.67
  571.99   17.98  556.73   17.74  580.47   18.11  555.60   17.72  573.69   18.01
  569.73   17.94  563.52   17.85  547.12   17.59  561.82   17.82  563.52   17.85
  569.73   17.94  558.43   17.77  543.17   17.52  548.82   17.61  534.12   17.38
  555.60   17.72  557.86   17.76  545.43   17.56  532.43   17.35  531.30   17.33
  556.15   14.40  555.40   14.39  567.70   14.55  529.68   14.05  521.11   13.94
  542.35   14.22  554.65   14.38  573.29   14.62  522.34   17.03  567.86   17.75
  536.77   17.26  547.88   17.44  529.00   17.14  560.09   17.63  570.08   17.79
  521.23   17.01  561.20   17.65  533.44   17.21  543.99   17.38  539.55   17.31
  554.54   17.54  511.80   16.86  564.53   17.70  531.78   17.18  531.78   17.18
  526.78   17.10  538.44   17.29  520.12   16.99  561.75   17.66  530.67   17.16
  502.36   16.70  517.90   16.96  559.53   17.62  534.00   17.22  530.11   17.15
  547.32   17.43  545.66   17.40  548.99   17.46  504.02   16.73  540.66   17.32
  560.09   17.63  528.45   17.13  540.11   17.31  543.44   17.37  531.22   17.17
  520.68   17.00  506.80   16.77  552.87   17.52  544.55   17.39  521.79   17.02
  582.29   17.98  534.55   17.23  546.21   17.41  566.75   17.74  536.22   17.25
  521.45   13.92  527.76   14.00  512.53   13.80  551.90   14.32  544.10   14.22
  562.48   17.66  538.10   17.27  542.53   17.34  531.45   17.16  519.26   16.96
  534.22   17.21  567.47   17.73  531.45   17.16  536.99   17.25  518.70   16.95
  537.55   17.26  523.69   17.04  515.38   16.90  533.67   17.20  513.72   16.87
  533.67   17.20  566.92   17.72  533.11   17.19  517.59   16.94  520.37   16.98
  559.16   17.60  535.88   17.23  514.27   16.88  548.07   17.43  546.41   17.40
  519.81   16.97  513.16   16.86  527.02   17.09  543.09   17.35  525.35   17.06
  534.22   17.21  553.62   17.52  544.75   17.37  569.13   17.76  555.28   17.54
  546.41   17.40  539.76   17.30  522.58   17.02  513.72   16.87  534.22   17.21
  564.15   17.68  568.02   17.74  541.98   17.33  514.27   16.88  524.24   17.04
  546.97   17.41  530.34   17.14  517.04   16.93  549.74   17.45  551.40   17.48
  530.82   14.01  558.91   14.37  562.98   14.43  524.63   17.11  553.65   17.58
  538.02   17.33  523.51   17.09  586.02   18.08  557.00   17.63  539.14   17.35
  578.21   17.96  547.51   17.48  543.60   17.42  574.86   17.91  559.23   17.67
  561.46   17.70  588.81   18.13  575.97   17.93  567.04   17.79  611.13   18.47
  613.37   18.50  634.02   18.81  599.41   18.29  638.48   18.88  673.08   19.38
  716.06   19.99  755.69   20.54  801.45   21.15  882.94   22.20  939.86   22.90
 1054.83   24.26 1180.97   25.67 1303.20   26.97 1501.33   28.95 1780.94   31.53
 2115.25   34.36 2576.25   37.92 3086.93   41.51 3614.90   44.92 3953.68   46.97
 4180.27   48.30 3844.29   46.32 3451.93   43.89 2856.43   39.93 2169.39   34.80
 1528.67   29.21 1161.43   25.46  899.68   22.41  752.90   20.50  650.20   19.05
  642.95   18.94  665.27   19.27  647.97   19.02  616.72   18.55  614.79   15.40
  620.19   15.47  624.82   15.52  658.37   15.94  667.55   19.81  640.52   19.40
  640.52   19.40  686.35   20.08  678.71   19.97  730.42   20.72  729.25   20.70
  780.37   21.41  794.48   21.61  815.04   21.88  783.31   21.45  886.15   22.82
  947.26   23.59  999.56   24.24 1053.62   24.88 1210.52   26.67 1413.25   28.82
 1746.44   32.04 2022.62   34.48 2509.18   38.40 2972.23   41.79 3494.05   45.31
 3842.52   47.52 4071.69   48.91 3957.10   48.22 3532.83   45.56 2960.48   41.71
 2321.14   36.93 1663.58   31.27 1289.26   27.52  963.13   23.79  773.32   21.32
  739.83   20.85  644.04   19.45  579.99   18.46  604.08   18.84  598.80   18.76
  597.62   18.74  575.88   18.40  584.10   18.53  568.83   18.28  603.50   18.83
  562.36   18.18  551.20   18.00  592.92   18.67  560.01   18.14  579.40   18.45
  511.24   17.33  561.77   18.17  549.84   14.77  531.59   14.52  533.97   14.55
  558.56   14.89  550.23   14.77  588.32   15.28  541.98   18.29  583.95   18.99
  584.57   19.00  538.27   18.23  568.52   18.73  583.95   18.99  555.56   18.52
  564.20   18.66  575.31   18.84  579.01   18.91  572.22   18.79  579.01   18.91
  625.31   19.65  610.49   19.41  652.47   20.07  672.22   20.37  722.22   21.11
  772.22   21.83  861.11   23.06  933.95   24.01 1042.59   25.37 1220.99   27.45
 1354.32   28.91 1422.84   29.64 1398.15   29.38 1354.94   28.92 1238.89   27.65
 1059.88   25.58  959.88   24.34  746.30   21.46  691.98   20.67  675.93   20.43
  595.06   19.17  606.79   19.35  583.95   18.99  572.22   18.79  549.38   18.42
  550.00   18.43  561.73   18.62  561.73   18.62  564.20   18.66  585.80   19.02
  572.22   18.79  555.56   18.52  558.02   18.56  583.95   18.99  564.20   18.66
  543.83   18.32  548.07   15.24  544.26   15.18  536.64   15.08  566.71   15.49
  586.62   15.76  597.20   15.90  589.10   19.43  627.56   20.06  626.92   20.05
  644.87   20.33  720.51   21.49  725.64   21.57  769.87   22.22  758.97   22.06
  781.41   22.38  820.51   22.93  780.77   22.37  700.00   21.18  633.97   20.16
  563.46   19.01  572.44   19.16  569.23   19.10  540.38   18.61  539.10   18.59
  518.59   18.23  551.28   18.80  521.15   18.28  541.67   18.63  528.21   18.40
  525.00   18.34  505.77   18.01  525.64   18.36  531.41   18.46  505.77   18.01
  493.59   17.79  517.31   18.21  544.87   18.69  504.49   17.98  530.13   18.43
  532.69   18.48  519.23   18.24  529.49   18.42  509.62   18.07  500.00   17.90
  485.26   17.64  529.49   18.42  556.41   18.89  503.21   17.96  561.54   18.97
  525.00   18.34  525.64   18.36  518.59   18.23  540.38   18.61  514.74   18.16
  486.54   17.66  521.20   14.67  529.04   14.78  538.95   14.91  534.41   14.85
  519.25   17.99  528.60   18.15  474.36   17.20  506.78   17.77  539.82   18.34
  514.88   17.92  513.01   17.88  535.45   18.27  544.80   18.43  525.48   18.10
  542.93   18.40  552.28   18.55  574.10   18.92  577.84   18.98  585.32   19.10
  605.89   19.43  585.32   19.10  604.02   19.40  664.48   20.35  628.95   19.80
  588.44   19.15  584.07   19.08  536.70   18.29  591.55   19.20  527.97   18.14
  539.19   18.33  547.92   18.48  545.43   18.44  496.81   17.60  529.22   18.16
  524.86   18.09  488.08   17.44  540.44   18.35  512.39   17.87  533.58   18.24
  506.78   17.77  524.23   18.08  519.87   18.00  496.18   17.59  519.25   17.99
  518.00   17.97  504.91   17.74  511.77   17.86  493.07   17.53  510.52   17.84
  547.30   18.47  526.10   18.11  525.48   18.10  506.16   17.76  513.72   14.43
  492.25   14.12  518.18   14.49  522.64   14.55  527.90   14.62  489.80   16.84
  544.80   17.76  509.48   17.17  494.43   16.92  515.27   17.27  486.90   16.79
  496.74   16.96  518.74   17.33  515.85   17.28  525.69   17.45  512.38   17.22
  513.53   17.24  504.85   17.10  499.64   17.01  526.85   17.46  495.59   16.94
  533.22   17.57  530.90   17.53  478.80   16.65  519.32   17.34  510.06   17.18
  510.64   17.19  524.53   17.43  501.95   17.05  516.43   17.29  493.27   16.90
  510.06   17.18  529.74   17.51  547.11   17.80  526.27   17.46  543.06   17.73
  517.59   17.31  558.11   17.98  552.32   17.88  581.85   18.35  577.22   18.28
  669.85   19.69  668.69   19.68  739.33   20.69  805.91   21.60  829.64   21.92
  871.33   22.46  983.07   23.86  903.75   22.87  891.59   22.72  805.33   21.59
  730.64   20.57  642.06   19.28  618.90   18.93  598.64   18.62  539.26   14.51
  531.46   14.40  540.44   14.52  523.66   14.29  544.73   14.58  524.86   17.57
  531.92   17.69  535.45   17.75  506.03   17.26  523.68   17.55  542.51   17.87
  501.32   17.18  519.56   17.48  515.45   17.42  522.51   17.53  498.97   17.13
  514.86   17.41  518.39   17.46  521.92   17.52  529.57   17.65  511.33   17.35
  518.98   17.47  517.21   17.45  524.86   17.57  511.33   17.35  537.22   17.78
  536.04   17.76  521.33   17.51  504.85   17.24  521.33   17.51  533.10   17.71
  523.10   17.54  543.10   17.88  524.27   17.56  526.04   17.59  553.10   18.04
  515.45   17.42  573.11   18.36  564.87   18.23  581.94   18.50  607.83   18.91
  563.70   18.21  637.25   19.36  633.13   19.30  597.23   18.75  634.30   19.32
  560.16   18.16  541.92   17.86  527.21   17.61  547.22   17.94  558.99   18.14
  543.10   17.88  521.92   17.52  549.34   14.61  550.12   14.62  560.22   14.75
  527.97   14.32  554.39   14.68  573.10   18.31  556.73   18.04  546.78   17.88
  576.02   18.35  561.40   18.12  632.75   19.24  651.46   19.52  691.81   20.11
  770.18   21.22  768.42   21.20  800.00   21.63  819.88   21.90  905.26   23.01
  854.39   22.35  774.85   21.29  744.44   20.86  712.28   20.41  623.98   19.10
  588.89   18.56  599.42   18.72  563.74   18.16  574.27   18.33  570.76   18.27
  561.99   18.13  585.96   18.51  562.57   18.14  518.71   17.42  547.95   17.90
  563.74   18.16  566.67   18.20  594.15   18.64  547.37   17.89  550.88   17.95
  591.23   18.59  600.00   18.73  602.92   18.78  629.24   19.18  658.48   19.62
  694.15   20.15  739.77   20.80  804.09   21.68  815.79   21.84  887.13   22.78
  854.39   22.35  891.81   22.84  836.26   22.11  823.39   21.94  836.26   22.11
  840.94   22.18  870.13   18.44  941.66   19.19 1061.66   20.37 1255.15   22.15
 1356.79   23.03 1522.13   24.39 1663.62   31.08 1628.21   30.74 1541.72   29.92
 1408.79   28.60 1238.14   26.81 1014.66   24.27  866.06   22.42  777.83   21.25
  747.06   20.82  684.95   19.94  739.52   20.72  727.91   20.56  778.99   21.26
  783.05   21.32  765.06   21.07  840.52   22.09  831.23   21.97  889.86   22.73
  925.26   23.18 1039.04   24.56 1107.53   25.36 1253.81   26.98 1357.13   28.07
 1539.98   29.90 1888.26   33.11 2338.70   36.84 2886.08   40.93 3901.32   47.59
 5032.65   54.05 6803.08   62.84 9279.35   73.3912023.80   83.5414576.69   91.99
16626.90   98.2417304.31  100.2216317.52   97.3214170.37   90.6911238.43   80.77
 8439.99   69.99 5953.85   58.79 4081.27   48.67 2953.42   41.40 2321.87   36.71
 1922.51   33.41 1688.58   31.31 1588.74   30.37 1497.03   29.48 1501.81   24.90
 1504.28   24.92 1484.46   24.76 1624.86   25.90 1758.65   26.95 1975.43   28.56
 2335.11   38.85 2573.60   40.78 2762.97   42.26 2741.64   42.09 2569.72   40.75
 2320.25   38.72 1882.05   34.88 1582.16   31.98 1245.44   28.37 1014.06   25.60
  901.60   24.14  835.03   23.23  781.39   22.47  717.40   21.53  672.81   20.85
  674.75   20.88  631.44   20.20  637.26   20.29  637.26   20.29  627.57   20.14
  610.76   19.87  639.84   20.34  644.37   20.41  617.22   19.97  627.57   20.14
  634.03   20.24  652.12   20.53  679.92   20.96  719.99   21.57  714.82   21.49
  703.18   21.32  710.29   21.43  675.39   20.89  704.48   21.34  668.28   20.78
  670.87   20.82  617.22   19.97  585.56   19.45  575.21   19.28  560.35   19.03
  566.17   19.13  589.43   19.52  560.35   19.03  575.21   19.28  525.45   18.43
  519.63   18.33  555.18   18.94  585.56   19.45  568.75   19.17  553.11   15.22
  578.25   15.57  585.80   15.67  561.49   15.34  530.48   14.91  562.98   19.13
  609.13   19.90  596.78   19.70  627.99   20.21  604.58   19.83  591.58   19.61
  602.63   19.79  584.43   19.49  552.58   18.95  568.83   19.23  548.03   18.87
  550.63   18.92  535.02   18.65  558.43   19.05  540.22   18.74  531.12   18.58
  520.72   18.40  549.98   18.91  534.37   18.64  529.17   18.55  525.27   18.48
  515.52   18.31  516.17   18.32  531.77   18.59  499.92   18.03  520.07   18.39
  566.88   19.20  548.03   18.87  542.17   18.77  529.82   18.56  546.08   18.84
  499.27   18.02  495.37   17.95  533.72   18.63  546.08   18.84  585.73   19.51
  558.43   19.05  585.08   19.50  585.08   19.50  611.08   19.93  627.99   20.21
  681.29   21.05  722.90   21.68  756.70   22.18  670.89   20.88  635.79   20.33
  635.14   20.32  612.38   19.95  566.23   19.19  552.81   15.37  555.80   15.41
  526.33   15.00  525.90   14.99  519.57   17.79  571.34   18.65  541.50   18.16
  512.26   17.66  507.39   17.58  535.40   18.06  543.32   18.19  542.10   18.17
  561.60   18.50  517.13   17.75  562.20   18.51  557.94   18.43  520.18   17.80
  534.19   18.04  572.56   18.67  514.69   17.71  545.76   18.23  548.20   18.27
  546.37   18.24  551.24   18.32  531.14   17.99  539.06   18.12  535.40   18.06
  554.29   18.37  502.51   17.50  558.55   18.44  517.13   17.75  542.71   18.18
  567.69   18.60  563.42   18.53  592.66   19.00  542.10   18.17  562.81   18.52
  551.85   18.33  598.75   19.10  600.58   19.13  632.86   19.63  655.40   19.98
  723.62   20.99  822.90   22.39  890.51   23.29 1039.14   25.16 1171.31   26.71
 1297.40   28.11 1425.92   29.47 1473.43   29.96 1455.76   29.78 1382.06   29.01
 1258.41   27.69 1065.94   25.48  960.10   19.60  816.88   18.08  718.87   16.96
  680.07   16.49  618.06   15.72  643.78   19.69  653.42   19.84  614.27   19.23
  631.14   19.50  613.67   19.22  625.72   19.41  673.29   20.14  665.46   20.02
  674.50   20.15  746.16   21.20  820.23   22.23  897.92   23.25 1046.07   25.10
 1273.71   27.70 1630.83   31.34 2050.59   35.14 2452.88   38.43 2870.22   41.58
 3167.12   43.67 3138.21   43.47 2984.04   42.39 2476.36   38.62 2050.59   35.14
 1637.46   31.40 1322.49   28.22 1014.15   24.71  848.54   22.61  777.48   21.64
  671.48   20.11  676.90   20.19  631.74   19.51  595.00   18.93  579.34   18.68
  582.35   18.73  557.06   18.32  552.24   18.24  574.53   18.60  571.51   18.55
  554.05   18.27  548.03   18.17  542.01   18.07  538.39   18.01  571.51   18.55
  542.01   18.07  560.67   18.38  566.09   18.46  554.05   18.27  561.88   18.40
  537.79   18.00  556.38   15.10  561.71   15.18  544.90   14.95  558.02   15.13
  569.91   15.29  601.89   19.18  581.73   18.85  569.51   18.65  583.56   18.88
  634.89   19.70  593.95   19.05  631.23   19.64  641.61   19.80  680.11   20.39
  685.00   20.46  732.05   21.15  696.00   20.62  803.54   22.16  835.32   22.59
  868.93   23.04  923.31   23.75 1013.14   24.88 1113.96   26.09 1213.57   27.23
 1404.22   29.29 1714.63   32.37 1968.84   34.69 2490.07   39.01 3046.75   43.15
 3794.07   48.15 4557.29   52.77 5202.57   56.38 5416.44   57.53 5290.56   56.86
 4925.76   54.86 4172.93   50.50 3304.61   44.94 2623.89   40.04 1976.78   34.76
 1581.42   31.09 1279.56   27.96 1087.69   25.78  958.75   24.20  869.54   23.05
  845.10   22.72  733.88   21.18  724.72   21.04  707.00   20.79  660.56   20.09
  620.84   19.48  611.06   19.32  589.67   18.98  608.00   19.28  609.23   19.29
  590.95   15.57  601.62   15.71  579.87   15.43  611.47   15.84  582.74   15.46
  597.31   19.45  552.97   18.72  646.71   20.24  655.58   20.38  656.22   20.39
  655.58   20.38  720.19   21.36  753.76   21.85  802.53   22.55  857.01   23.30
 1054.63   25.85 1211.72   27.70 1408.08   29.86 1647.51   32.30 1965.48   35.28
 2195.41   37.29 2270.15   37.92 2314.49   38.29 2095.96   36.44 1886.94   34.57
 1529.06   31.12 1287.09   28.55 1064.77   25.97  919.08   24.13  860.17   23.34
  722.09   21.39  665.72   20.53  624.54   19.89  631.51   20.00  578.94   19.15
  605.54   19.58  590.34   19.34  556.77   18.78  559.30   18.82  604.91   19.57
  601.74   19.52  582.74   19.21  636.58   20.08  685.35   20.84  684.09   20.82
  741.09   21.67  708.16   21.18  753.13   21.84  759.46   21.93  746.79   21.75
  699.92   21.06  625.81   19.91  624.54   19.89  587.17   19.29  561.43   15.58
  551.49   15.44  548.46   15.40  540.68   15.29  544.14   15.34  534.77   18.66
  554.96   19.01  558.87   19.08  549.75   18.92  549.75   18.92  548.44   18.90
  550.40   18.93  557.56   19.06  546.49   18.87  568.64   19.25  515.23   18.32
  550.40   18.93  561.47   19.12  522.39   18.45  517.83   18.37  526.95   18.53
  478.75   17.66  507.41   18.18  511.97   18.26  561.47   19.12  477.45   17.63
  489.17   17.85  539.98   18.75  492.43   17.91  485.91   17.79  530.86   18.60
  525.65   18.50  559.52   19.09  540.63   18.77  540.63   18.77  521.09   18.42
  533.46   18.64  493.73   17.93  523.04   18.46  524.34   18.48  529.56   18.57
  566.68   19.21  575.80   19.37  541.93   18.79  564.08   19.17  576.45   19.38
  624.65   20.17  643.54   20.47  661.13   20.75  739.29   21.94  815.50   23.05
  824.62   23.18  838.95   23.38  784.89   22.61  756.48   17.97  736.43   17.73
  695.89   17.23  628.05   16.37  659.20   16.77  555.23   18.97  582.44   19.43
  599.94   19.72  596.05   19.65  579.85   19.38  601.88   19.75  592.81   19.60
  566.89   19.16  586.33   19.49  574.02   19.28  557.82   19.01  546.81   18.82
  530.61   18.54  520.89   18.37  563.01   19.10  563.65   19.11  553.29   18.93
  553.29   18.93  576.61   19.33  517.01   18.30  563.65   19.11  599.94   19.72
  596.05   19.65  574.67   19.30  654.36   20.59  674.44   20.90  708.78   21.43
  810.50   22.92  877.23   23.84  988.01   25.30 1126.01   27.01 1254.29   28.51
 1351.47   29.59 1486.88   31.04 1492.06   31.09 1417.56   30.31 1303.53   29.06
 1158.41   27.40 1079.37   26.44  955.62   24.88  913.51   24.33  857.14   23.57
  834.47   23.25  836.41   23.28  820.21   23.05  800.13   22.77  793.65   22.68
  806.61   22.86  882.41   23.91  919.58   19.57  942.08   19.81 1066.67   21.08
 1179.17   22.17 1331.67   23.56 1518.32   30.20 1790.39   32.79 2034.23   34.95
 2262.46   36.86 2421.02   38.13 2778.38   40.85 2974.77   42.27 3280.48   44.39
 3815.62   47.87 4278.68   50.69 4684.68   53.04 4965.17   54.61 5047.45   55.06
 4627.63   52.72 4048.65   49.31 3380.18   45.06 2818.62   41.14 2323.72   37.36
 1874.47   33.55 1563.96   30.65 1308.71   28.04 1185.59   26.68 1062.46   25.26
  959.76   24.01  950.15   23.89  891.29   23.14  829.43   22.32  824.62   22.25
  749.55   21.22  729.73   20.94  695.50   20.44  717.72   20.76  669.07   20.05
  660.06   19.91  656.46   19.86  634.83   19.53  621.02   19.31  601.20   19.00
  577.78   18.63  590.99   18.84  595.80   18.92  606.01   19.08  589.19   18.81
  614.41   19.21  627.03   19.41  657.66   19.87  697.90   20.47  737.54   21.05
  767.52   17.63  810.85   18.12  824.22   18.27  843.66   18.49  806.80   18.08
  793.84   17.93  767.24   21.50  738.33   21.09  661.25   19.96  631.74   19.51
  646.19   19.73  594.40   18.92  587.17   18.80  582.35   18.73  543.81   18.10
  578.14   18.66  578.14   18.66  563.08   18.41  604.03   19.07  628.73   19.46
  600.42   19.02  632.94   19.52  679.92   20.24  719.66   20.82  764.83   21.46
  826.26   22.31  884.07   23.07 1005.72   24.61 1185.79   26.72 1371.27   28.74
 1668.17   31.70 1992.77   34.64 2233.66   36.68 2372.18   37.80 2526.95   39.01
 2414.94   38.14 2271.00   36.98 1966.88   34.42 1738.03   32.35 1460.40   29.66
 1218.91   27.09 1077.39   25.47  920.20   23.54  848.54   22.61  796.75   21.90
  711.23   20.70  700.99   20.55  660.04   19.94  669.68   20.08  641.98   19.66
  600.42   19.02  584.16   18.76  557.66   18.33  542.01   18.07  549.28   14.95
  524.87   14.61  526.90   14.64  527.72   14.65  513.88   14.46  527.72   14.65
  526.46   18.13  546.45   18.47  525.84   18.12  542.08   18.40  533.96   18.26
  503.36   17.73  508.35   17.82  523.97   18.09  510.85   17.86  500.23   17.67
  535.21   18.28  530.21   18.20  528.96   18.18  555.19   18.62  520.22   18.02
  526.46   18.13  493.99   17.56  531.46   18.22  521.47   18.05  503.98   17.74
  529.59   18.19  527.09   18.14  563.93   18.77  499.61   17.66  524.59   18.10
  494.61   17.58  517.72   17.98  538.95   18.35  540.83   18.38  532.71   18.24
  532.08   18.23  522.09   18.06  557.69   18.66  504.61   17.75  552.69   18.58
  561.44   18.72  557.06   18.65  594.54   19.27  603.90   19.42  580.80   19.05
  614.52   19.59  630.13   19.84  645.75   20.08  666.35   20.40  647.62   20.11
  709.45   21.05  721.94   21.23  720.69   21.22  794.47   18.38  822.12   18.70
  854.01   19.06  920.79   19.79  987.99   20.50 1159.48   27.37 1210.53   27.97
 1411.54   30.20 1558.89   31.74 1672.65   32.88 1888.51   34.94 2119.24   37.01
 2295.04   38.51 2627.89   41.21 2903.22   43.32 3206.98   45.53 3498.47   47.55
 3585.72   48.14 3374.37   46.70 3274.20   46.00 2867.02   43.05 2419.13   39.54
 2048.80   36.39 1754.08   33.67 1434.80   30.45 1241.56   28.33  983.03   25.21
  948.13   24.75  835.03   23.23  849.25   23.43  735.50   21.80  685.73   21.05
  701.24   21.29  651.48   20.52  636.61   20.28  601.71   19.72  612.70   19.90
  596.54   19.64  579.74   19.36  582.97   19.41  582.97   19.41  529.97   18.51
  556.47   18.96  550.65   18.87  564.87   19.11  568.10   19.16  545.48   18.78
  528.03   18.47  562.29   19.06  551.95   18.89  545.48   18.78  557.12   18.98
  531.91   18.54  553.24   18.91  550.92   15.72  556.30   15.80  583.22   16.18
  562.58   15.89  572.45   16.03  561.55   19.80  627.20   20.93  633.49   21.03
  627.20   20.93  675.40   21.72  707.53   22.23  739.65   22.73  775.28   23.27
  814.39   23.85  855.60   24.45 1018.33   26.67 1153.13   28.38 1311.68   30.27
 1498.17   32.35 1877.42   36.21 2226.65   39.44 2412.43   41.05 2635.24   42.90
 2757.46   43.89 2598.22   42.60 2499.74   41.78 2256.68   39.70 1972.41   37.12
 1630.17   33.74 1411.56   31.40 1220.19   29.19 1081.89   27.49  941.51   25.64
  837.44   24.18  814.39   23.85  728.48   22.56  660.73   21.48  669.11   21.62
  634.89   21.06  626.51   20.92  618.82   20.79  600.66   20.48  599.97   20.47
  616.03   20.74  612.54   20.68  568.54   19.93  617.43   20.77  578.31   20.10
  574.12   20.02  592.98   20.35  576.92   20.07  574.82   20.04  596.47   20.41
  599.97   20.47  583.20   20.18  633.69   16.69  641.16   16.79  658.31   17.01
  664.03   17.09  638.45   20.47  695.54   21.36  696.85   21.38  726.38   21.83
  725.72   21.82  767.06   22.43  797.24   22.87  845.14   23.55  909.45   24.43
 1007.87   25.72 1070.87   26.51 1175.20   27.77 1342.52   29.68 1419.29   30.52
 1576.12   32.16 1589.90   32.30 1627.30   32.68 1612.20   32.53 1500.66   31.38
 1406.17   30.38 1314.30   29.37 1296.59   29.17 1220.47   28.30 1106.96   26.95
 1156.17   27.54 1163.39   27.63 1216.54   28.25 1310.37   29.32 1375.98   30.05
 1539.37   31.78 1739.50   33.78 2064.30   36.80 2442.26   40.03 2853.67   43.27
 3229.66   46.03 3697.51   49.26 4026.90   51.40 4167.98   52.30 4181.76   52.38
 4021.00   51.37 3584.65   48.50 3228.35   46.03 2819.55   43.01 2440.94   40.02
 2261.15   38.52 1975.07   36.00 1795.28   34.32 1718.50   33.58 1781.50   34.19
 1711.58   27.12 1816.46   27.94 1819.04   27.96 1785.08   27.70 1706.00   27.08
 1586.26   31.06 1430.61   29.49 1296.25   28.07 1184.37   26.83 1104.12   25.91
 1034.81   25.08  935.10   23.84  868.83   22.98  809.85   22.19  775.80   21.72
  794.65   21.98  767.90   21.61  774.59   21.70  784.31   21.84  801.95   22.08
  848.15   22.71  952.73   24.07  948.47   24.01 1046.36   25.22 1062.78   25.42
 1008.66   24.76  987.38   24.50  938.14   23.88  906.52   23.48  822.62   22.36
  773.98   21.69  715.61   20.86  679.13   20.32  643.87   19.79  619.55   19.41
  615.90   19.35  622.59   19.46  580.64   18.79  561.79   18.48  560.57   18.46
  530.78   17.96  532.00   17.98  554.49   18.36  561.79   18.48  546.59   18.23
  537.47   18.08  524.70   17.86  527.13   17.90  546.59   18.23  519.84   17.78
  522.27   17.82  552.67   18.33  527.13   17.90  510.72   17.62  548.71   14.90
  546.69   14.87  546.28   14.87  570.56   15.19  553.57   14.97  570.16   15.19
  544.51   18.28  548.80   18.35  580.11   18.87  603.44   19.25  618.17   19.48
  602.82   19.24  615.10   19.43  615.72   19.44  648.86   19.96  612.65   19.39
  672.19   20.31  586.86   18.98  605.28   19.28  607.12   19.31  589.93   19.03
  563.54   18.60  556.17   18.48  593.00   19.08  580.72   18.88  555.56   18.47
  612.03   19.38  593.62   19.09  604.05   19.26  585.64   18.96  619.40   19.50
  631.06   19.68  675.26   20.36  682.63   20.47  701.04   20.74  728.05   21.14
  782.69   21.92  841.62   22.73  920.20   23.77  950.28   24.15 1047.27   25.36
 1087.78   25.84 1117.25   26.19 1115.41   26.17 1025.78   25.09  944.75   24.08
  942.91   24.06  928.79   23.88  841.62   22.73  725.60   21.11  734.19   21.23
  719.46   21.02  678.33   20.41  680.79   20.44  670.35   20.29  680.76   16.55
  642.51   16.08  654.59   16.23  619.97   15.80  623.85   19.26  607.79   19.01
  588.17   18.70  576.27   18.51  596.49   18.83  549.51   18.08  545.35   18.01
  523.94   17.65  526.91   17.70  522.75   17.63  522.75   17.63  527.51   17.71
  506.69   17.36  529.88   17.75  491.82   17.10  499.55   17.24  510.26   17.42
  497.18   17.20  475.77   16.82  478.74   16.87  482.90   16.95  473.98   16.79
  504.31   17.32  482.90   16.95  502.53   17.29  494.20   17.14  494.80   17.15
  531.67   17.78  512.64   17.46  486.47   17.01  510.85   17.43  529.29   17.74
  505.50   17.34  513.23   17.47  510.26   17.42  488.25   17.04  516.80   17.53
  503.12   17.30  536.43   17.86  530.48   17.76  516.80   17.53  519.18   17.57
  533.45   17.81  592.33   18.77  525.72   17.68  576.87   18.52  559.02   18.23
  555.46   18.18  591.73   18.76  595.30   18.82  597.83   15.58  620.57   15.88
  631.13   16.01  685.96   16.69  693.26   20.59  734.22   21.19  747.06   21.37
  775.79   21.78  813.69   22.30  881.55   23.21  989.76   24.60 1068.01   25.55
 1168.27   26.72 1253.25   27.68 1433.59   29.60 1550.36   30.79 1685.47   32.10
 1860.92   33.73 1920.83   34.27 1983.19   34.82 1904.94   34.13 1878.04   33.88
 1789.39   33.07 1698.91   32.23 1406.08   29.32 1326.61   28.48 1176.22   26.82
 1030.72   25.10 1008.71   24.83  891.95   23.35  785.57   21.91  770.90   21.71
  727.50   21.09  685.31   20.47  656.58   20.03  655.97   20.03  595.45   19.08
  637.63   19.74  617.45   19.43  617.45   19.43  595.45   19.08  618.07   19.44
  582.00   18.86  619.29   19.46  618.07   19.44  656.58   20.03  668.81   20.22
  668.81   20.22  688.98   20.52  709.77   20.83  779.46   21.83  772.73   21.73
  842.43   22.69  859.03   18.66  889.02   18.98  887.00   18.96  896.32   19.06
  885.38   18.95  838.35   18.44  827.67   22.66  774.93   21.93  758.80   21.70
  722.20   21.17  700.48   20.85  706.06   20.93  624.79   19.69  660.77   20.25
  644.64   20.00  663.87   20.30  696.76   20.79  708.55   20.97  706.06   20.93
  743.29   21.47  788.58   22.12  818.99   22.54  850.01   22.96  811.54   22.44
  812.78   22.46  802.85   22.32  771.83   21.88  767.49   21.82  731.50   21.30
  700.48   20.85  680.01   20.54  652.71   20.12  621.06   19.63  605.55   19.38
  625.41   19.70  583.22   19.02  571.43   18.83  573.29   18.86  584.46   19.04
  583.22   19.02  552.19   18.51  550.95   18.49  544.13   18.37  574.53   18.88
  549.09   18.46  560.26   18.64  549.09   18.46  536.68   18.25  527.38   18.09
  551.57   18.50  559.64   18.63  598.73   19.27  573.29   18.86  603.07   19.34
  627.52   16.04  632.44   16.10  628.34   16.05  665.64   16.52  705.40   17.00
  691.05   16.83  759.49   21.40  788.43   21.80  859.55   22.76  869.20   22.89
 1004.82   24.61 1021.10   24.81 1110.31   25.87 1122.97   26.02 1141.65   26.23
 1229.66   27.23 1269.44   27.66 1253.77   27.49 1270.04   27.67 1236.89   27.31
 1274.86   27.72 1230.86   27.24 1156.12   26.40 1092.83   25.67 1008.44   24.65
  922.85   23.59  892.10   23.19  870.40   22.91  787.22   21.78  798.67   21.94
  748.04   21.23  748.64   21.24  722.72   20.87  706.45   20.64  754.07   21.32
  710.07   20.69  760.70   21.41  776.97   21.64  789.03   21.81  806.51   22.05
  812.54   22.13  766.73   21.50  775.77   21.62  789.03   21.81  768.54   21.52
  758.89   21.39  713.68   20.74  711.27   20.71  717.90   20.80  685.96   20.33
  664.26   20.01  642.56   19.68  643.76   19.70  674.99   16.35  664.29   16.22
  658.35   16.15  656.76   16.13  672.21   16.32  703.51   16.69  715.68   20.56
  787.72   21.57  757.01   21.14  820.19   22.01  840.86   22.28  904.64   23.11
  943.61   23.60 1055.21   24.96 1070.56   25.14 1259.52   27.27 1364.04   28.38
 1536.46   30.12 1741.36   32.07 1915.56   33.63 2115.15   35.34 2245.65   36.41
 2408.62   37.71 2466.49   38.16 2386.18   37.54 2384.41   37.52 2257.45   36.51
 2089.75   35.13 1923.83   33.70 1769.71   32.33 1587.84   30.62 1432.54   29.08
 1255.98   27.23 1142.60   25.97 1041.63   24.80  934.16   23.49  868.62   22.65
  792.44   21.63  757.60   21.15  678.48   20.02  704.46   20.40  632.42   19.32
  658.99   19.73  611.16   19.00  579.27   18.49  591.08   18.68  578.68   18.49
  578.68   18.49  573.37   18.40  559.79   18.18  557.43   18.14  532.62   17.73
  538.53   17.83  540.89   17.87  565.10   18.27  522.22   14.35  515.52   14.25
  536.80   14.55  547.05   14.68  516.31   14.27  534.15   17.68  524.79   17.52
  531.23   17.63  526.55   17.55  492.03   16.97  496.71   17.05  500.22   17.11
  503.73   17.17  536.49   17.72  527.72   17.57  499.05   17.09  547.61   17.90
  508.41   17.25  535.32   17.70  530.06   17.61  552.87   17.98  528.30   17.58
  520.70   17.45  545.85   17.87  573.35   18.32  541.76   17.80  564.58   18.17
  545.85   17.87  562.23   18.14  604.94   18.81  568.67   18.24  573.35   18.32
  576.28   18.36  606.11   18.83  621.33   19.07  605.53   18.82  653.50   19.55
  653.50   19.55  690.36   20.10  679.25   19.93  728.97   20.65  772.85   21.26
  795.09   21.57  857.69   22.40  920.87   23.21  982.89   23.98 1008.04   24.28
 1132.08   25.74 1260.20   27.15 1387.16   28.49 1470.82   29.33 1636.39   30.94
 1747.55   31.98 1844.87   27.09 1949.48   27.85 2021.48   28.36 2009.94   28.28
 1955.85   27.89 1958.14   34.46 1794.97   33.00 1700.33   32.12 1580.22   30.96
 1431.00   29.46 1350.32   28.62 1212.01   27.11 1167.73   26.61 1080.38   25.60
  983.92   24.43  932.97   23.79  921.44   23.64  860.78   22.85  879.59   23.10
  845.01   22.64  855.93   22.79  842.58   22.61  815.89   22.25  826.21   22.39
  867.46   22.94  839.55   22.57  840.76   22.58  826.81   22.40  776.46   21.70
  769.79   21.61  752.81   21.37  743.71   21.24  683.65   20.36  641.80   19.73
  657.57   19.97  645.44   19.79  614.50   19.31  615.71   19.33  592.66   18.96
  612.07   19.27  595.09   19.00  575.67   18.69  589.02   18.90  617.53   19.35
  593.87   18.98  602.37   19.12  582.95   18.80  585.99   18.85  602.97   19.13
  605.40   19.16  599.94   19.08  555.66   18.36  598.73   19.06  587.20   18.87
  613.28   19.29  637.91   16.02  637.10   16.01  655.61   16.24  685.77   16.61
  696.63   16.74  683.71   20.40  718.42   20.91  745.21   21.30  798.17   22.04
  841.40   22.63  924.20   23.72  938.81   23.91 1028.92   25.03 1084.32   25.69
 1162.25   26.60 1271.23   27.82 1335.16   28.51 1432.57   29.53 1452.05   29.73
 1478.84   30.01 1531.20   30.53 1508.07   30.30 1531.81   30.54 1493.46   30.15
 1475.19   29.97 1326.64   28.42 1329.68   28.45 1196.96   27.00 1096.50   25.84
  989.35   24.54  982.04   24.45  904.72   23.47  913.85   23.59  849.32   22.74
  834.09   22.53  763.47   21.56  762.86   21.55  703.81   20.70  734.25   21.14
  696.50   20.59  707.46   20.75  658.75   20.03  725.11   21.01  697.72   20.61
  725.11   21.01  756.77   21.46  812.79   22.25  793.30   21.98  821.92   22.37
  883.41   23.19  872.45   23.05  938.20   23.90 1007.61   24.77 1038.05   25.14
 1105.43   20.93 1102.66   20.91 1118.11   21.05 1171.62   21.55 1154.08   25.92
 1214.03   26.58 1163.97   26.03 1151.17   25.88 1132.55   25.67 1112.18   25.44
 1081.33   25.09 1088.90   25.17 1085.41   25.13 1062.13   24.86 1122.65   25.56
 1097.63   25.27 1140.70   25.77 1216.94   26.61 1279.21   27.29 1304.23   27.55
 1432.85   28.88 1459.62   29.15 1553.32   30.07 1650.52   30.99 1720.94   31.65
 1743.05   31.85 1757.02   31.98 1687.18   31.34 1579.51   30.32 1563.80   30.17
 1553.91   30.07 1450.31   29.05 1342.65   27.95 1257.09   27.05 1182.60   26.23
 1085.99   25.14  992.87   24.04  896.26   22.84  910.23   23.02  878.80   22.62
  807.22   21.67  744.94   20.82  720.50   20.48  702.46   20.22  695.48   20.12
  639.60   19.29  658.81   19.58  634.37   19.21  635.53   19.23  653.57   19.50
  614.58   18.91  645.42   19.38  622.14   19.03  645.42   19.38  622.81   15.76
  640.35   15.98  625.20   15.79  649.12   16.09  655.10   16.16  667.56   19.99
  658.58   19.86  704.09   20.53  708.88   20.60  703.49   20.52  732.23   20.94
  785.51   21.69  745.40   21.13  802.28   21.92  807.06   21.98  829.22   22.28
  807.66   21.99  871.13   22.84  844.78   22.49  834.61   22.35  865.74   22.77
  895.08   23.15  898.67   23.20  896.87   23.17  901.06   23.23  982.49   24.25
  981.89   24.25  965.72   24.05 1054.93   25.13 1048.35   25.05 1172.28   26.49
 1249.51   27.35 1313.58   28.04 1311.18   28.02 1457.87   29.54 1575.21   30.71
 1762.61   32.49 1862.00   33.39 2008.08   34.67 2261.34   36.80 2408.02   37.97
 2670.26   39.98 2776.83   40.77 2951.65   42.04 3225.86   43.95 3397.10   45.10
 3294.72   44.41 3365.36   44.89 3277.95   44.30 3255.20   44.15 3166.59   43.54
 2965.42   42.14 2889.99   41.60 2733.72   40.46 2534.40   32.27 2345.45   31.04
 2122.82   29.53 1979.87   28.52 1741.63   26.75 1703.99   33.11 1557.27   31.66
 1413.77   30.16 1252.25   28.39 1227.80   28.11 1128.70   26.95 1076.58   26.32
  989.06   25.23  975.55   25.06  903.47   24.11  853.93   23.44  889.96   23.93
  821.75   23.00  832.05   23.14  766.41   22.21  830.76   23.12  777.35   22.37
  768.34   22.24  750.32   21.97  762.55   22.15  752.90   22.01  754.18   22.03
  843.63   23.30  832.69   23.15  781.85   22.43  802.45   22.72  788.93   22.53
  790.86   22.56  780.57   22.41  795.37   22.62  796.01   22.63  778.64   22.38
  761.26   22.13  777.99   22.37  740.67   21.83  728.44   21.65  723.94   21.58
  703.35   21.27  728.44   21.65  662.81   20.65  684.68   20.99  673.10   20.81
  657.01   20.56  660.88   20.62  668.60   20.74  681.47   20.94  671.81   20.79
  629.34   20.12  659.20   16.53  644.28   16.34  655.06   16.48  671.23   16.68
  658.37   16.52  658.79   16.53  639.24   19.85  696.56   20.72  692.86   20.67
  678.07   20.44  671.91   20.35  763.14   21.69  748.34   21.48  797.66   22.17
  777.32   21.89  800.12   22.21  872.25   23.19  917.24   23.78  938.82   24.06
  975.19   24.52  997.38   24.80 1087.38   25.89 1051.63   25.46 1105.87   26.11
 1147.79   26.60 1162.58   26.77 1135.46   26.46 1150.25   26.63 1104.02   26.09
 1152.72   26.66 1174.29   26.90 1160.12   26.74 1101.56   26.06 1070.12   25.68
 1095.39   25.99 1031.90   25.22 1038.06   25.30 1020.19   25.08  986.90   24.66
 1015.26   25.02 1062.72   25.59 1054.09   25.49 1062.11   25.59 1163.82   26.78
 1149.64   26.62 1155.80   26.69 1202.03   27.22 1354.29   28.89 1349.36   28.84
 1402.37   29.40 1496.07   30.37 1555.25   30.96 1681.62   32.20 1803.05   33.34
 1770.38   33.04 1888.79   27.56 1918.95   27.78 1937.86   27.92 1949.92   28.01
 1940.67   27.94 1965.74   33.79 1921.60   33.41 1896.63   33.19 1790.94   32.25
 1695.12   31.38 1671.89   31.16 1609.18   30.57 1488.97   29.41 1492.45   29.44
 1362.37   28.13 1333.33   27.83 1305.46   27.53 1210.22   26.51 1211.96   26.53
 1133.57   25.66 1160.86   25.96 1094.66   25.21 1096.98   25.24 1084.20   25.09
 1011.61   24.24 1044.72   24.63 1040.65   24.58 1138.21   25.71 1072.59   24.96
 1081.30   25.06 1102.79   25.31 1116.72   25.47 1147.50   25.81 1174.22   26.11
 1234.03   26.77 1318.23   27.67 1397.79   28.49 1399.54   28.51 1511.61   29.63
 1510.45   29.62 1571.43   30.21 1602.21   30.50 1601.05   30.49 1581.30   30.30
 1648.66   30.94 1615.56   30.63 1533.10   29.84 1620.21   30.67 1529.62   29.80
 1512.78   29.64 1394.89   28.46 1386.18   28.37 1265.97   27.11 1217.19   26.59
 1169.12   21.23 1128.65   20.86 1063.89   20.25  992.58   19.56  954.93   23.45
  933.62   23.19  911.16   22.91  866.81   22.34  825.92   21.81  782.72   21.23
  801.73   21.49  737.80   20.61  725.70   20.44  738.95   20.63  780.42   21.20
  721.67   20.39  725.70   20.44  710.73   20.23  738.37   20.62  717.64   20.33
  728.58   20.48  738.95   20.63  741.25   20.66  779.27   21.19  742.98   20.69
  769.47   21.05  796.54   21.42  826.49   21.82  851.84   22.15  866.81   22.34
  919.80   23.02  956.08   23.47  974.51   23.69 1013.10   24.16 1041.90   24.50
 1120.23   25.40 1212.96   26.43 1269.40   27.04 1263.07   26.97 1316.05   27.53
 1399.57   28.39 1498.63   29.38 1535.49   29.74 1603.46   30.39 1691.58   31.21
 1742.84   31.68 1766.45   31.90 1721.53   31.49 1764.72   31.88 1810.22   32.29
 1741.68   31.67 1698.49   31.28 1745.72   31.71 1623.95   25.67 1601.62   25.50
 1535.46   24.96 1473.77   24.46 1439.27   24.17 1325.62   23.20 1272.70   28.21
 1220.82   27.62 1185.19   27.22 1112.05   26.37 1089.55   26.10 1029.54   25.37
  989.53   24.87 1028.29   25.35  982.03   24.78  960.78   24.51  927.02   24.07
  969.53   24.62  922.02   24.01  953.90   24.42  945.77   24.31  942.02   24.27
  994.53   24.93  978.28   24.73 1020.16   25.25  980.15   24.75 1084.54   26.04
 1053.29   25.66 1123.93   26.51 1167.68   27.02 1196.44   27.35 1250.20   27.96
 1264.57   28.12 1325.21   28.78 1333.33   28.87 1392.09   29.50 1328.33   28.82
 1384.59   29.42 1393.97   29.52 1370.21   29.27 1364.59   29.21 1328.96   28.82
 1332.08   28.86 1352.09   29.07 1289.58   28.39 1271.45   28.19 1232.07   27.75
 1202.69   27.42 1226.44   27.69 1138.93   26.68 1143.30   26.73 1052.66   25.65
 1042.66   25.53 1034.54   25.43 1040.16   25.50 1023.91   25.30 1037.04   25.46
 1042.66   25.53 1032.66   25.41 1048.29   25.60 1127.15   39.36 1068.04   38.32
 1090.03   38.71 1127.15   39.36 1134.02   39.48 1165.64   40.03 1186.25   40.38
 1197.25   40.57 1261.86   41.65 1241.24   41.31 1263.23   41.67 1290.72   42.12
 1186.25   40.38 1245.36   41.37 1167.01   40.05 1220.62   40.96 1212.37   40.82
 1160.14   39.93 1146.39   39.70 1191.75   40.47 1109.28   39.05 1006.19   37.19
 1030.93   37.64 1019.93   37.44  964.95   36.42  881.10   34.80  896.22   35.10
  754.64   32.21  890.72   34.99  773.88   32.62  816.49   33.50  747.77   32.06
  783.51   32.82  680.41   30.58  740.89   31.91  696.91   30.95  756.01   32.24
  717.53   31.41  677.66   30.52  751.89   32.15  769.76   32.53  716.15   31.38
  713.40   31.31  783.51   32.82  694.16   30.89  762.89   32.38  742.27   31.94
  816.49   33.50  758.76   32.30  841.24   34.00  811.00   33.39  751.89   32.15
  841.24   34.00                                                                