                                                                                
BANK 1 2431 487 CONST  602.500    5.000 0 0 ESD                                 
  510.64   24.07  510.64   24.07  517.45   24.23  586.67   25.80  524.26   24.39
  536.74   24.68  481.13   23.37  507.23   23.99  527.66   24.47  514.04   24.15
  533.33   24.60  536.74   24.68  533.33   24.60  535.60   24.65  534.47   24.63
  539.01   24.73  537.87   24.71  590.07   25.88  516.31   24.21  499.29   23.80
  507.23   23.99  561.70   25.25  548.09   24.94  580.99   25.68  558.30   25.17
  550.35   24.99  529.93   24.52  553.76   25.07  525.39   24.42  584.40   25.75
  563.97   25.30  590.07   25.88  541.28   24.78  568.51   25.40  559.43   25.20
  561.70   25.25  593.48   25.95  603.69   26.17  587.80   25.83  630.92   26.76
  617.30   26.47  636.60   26.88  633.19   26.81  664.96   27.47  660.43   27.38
  701.28   28.21  647.94   27.12  712.62   28.44  763.69   29.44  725.11   28.68
  773.90   29.63  803.40   30.19  856.30   22.00  874.38   22.23  970.47   23.42
 1016.82   23.97 1162.64   25.63 1250.25   26.58 1333.90   27.46 1517.59   29.29
 1518.16   29.29 1606.33   30.13 1557.72   29.67 1370.64   27.83 1291.51   27.02
 1007.77   23.87  830.30   21.66  696.91   19.85  625.12   18.80  591.21   18.28
  528.47   17.28  547.69   17.59  492.86   16.69  535.26   17.39  542.04   17.50
  519.99   17.14  520.56   17.15  517.17   17.10  503.04   16.86  503.60   16.87
  517.17   17.10  522.82   17.19  518.30   17.12  487.21   16.59  488.34   16.61
  491.73   16.67  455.00   16.04  473.08   16.35  496.26   16.75  471.95   16.33
  489.47   16.63  453.86   16.02  499.65   16.80  491.73   16.67  509.82   16.98
  456.69   16.07  477.04   16.42  502.47   16.85  484.39   16.55  500.78   16.82
  490.60   16.65  474.78   16.38  493.43   16.70  467.99   16.26  480.99   16.49
  489.05   13.50  480.48   13.38  481.60   13.40  438.73   12.79  483.83   13.43
  470.04   13.24  477.12   13.34  456.99   13.05  490.70   16.50  451.85   15.84
  462.95   16.03  476.82   16.27  467.39   16.11  477.38   16.28  489.04   16.48
  439.08   15.61  462.95   16.03  450.74   15.82  479.60   16.32  483.49   16.38
  474.60   16.23  457.40   15.93  501.80   16.69  449.63   15.80  441.30   15.65
  439.63   15.62  462.95   16.03  454.62   15.89  467.94   16.12  467.94   16.12
  457.40   15.93  446.85   15.75  442.96   15.68  442.96   15.68  481.27   16.34
  440.74   15.64  435.75   15.55  455.18   15.90  422.98   15.32  452.96   15.86
  433.53   15.51  425.76   15.37  457.95   15.94  450.74   15.82  457.95   15.94
  432.97   15.50  437.41   15.58  439.08   15.61  420.21   15.27  445.18   15.72
  450.74   15.82  465.17   16.07  421.87   15.30  478.49   16.30  467.94   16.12
  429.71   12.63  449.77   12.92  418.94   12.47  439.74   12.78  433.43   12.69
  460.52   15.98  452.76   15.84  469.94   16.14  467.17   16.09  442.23   15.65
  445.55   15.71  427.27   15.39  437.24   15.57  442.78   15.66  465.50   16.06
  428.93   15.42  422.28   15.30  431.70   15.47  438.35   15.59  435.02   15.53
  400.11   14.89  431.70   15.47  452.76   15.84  428.93   15.42  429.48   15.43
  452.20   15.83  427.82   15.40  418.95   15.24  435.02   15.53  437.79   15.58
  415.07   15.17  432.81   15.49  411.75   15.11  426.16   15.37  427.82   15.40
  462.73   16.01  405.65   14.99  437.24   15.57  449.43   15.78  398.45   14.86
  424.49   15.34  440.57   15.63  415.07   15.17  410.64   15.09  428.93   15.42
  432.81   15.49  438.35   15.59  435.58   15.54  432.25   15.48  402.33   14.93
  397.34   14.84  443.89   15.68  427.82   15.40  424.49   15.34  456.64   15.91
  427.69   12.57  431.75   12.63  409.20   12.30  411.33   15.15  421.93   15.35
  435.33   15.59  436.44   15.61  445.37   15.77  416.35   15.24  434.77   15.58
  394.03   14.83  426.96   15.44  403.52   15.01  419.70   15.30  441.47   15.70
  424.17   15.39  416.91   15.25  430.31   15.50  453.75   15.91  441.47   15.70
  474.95   16.28  479.42   16.36  458.77   16.00  507.88   16.84  487.23   16.49
  511.79   16.90  548.63   17.50  567.60   17.80  615.60   18.54  644.06   18.96
  728.34   20.16  836.61   21.61  954.93   23.09 1122.37   25.03 1331.66   27.26
 1601.79   29.90 1951.72   33.00 2105.76   34.28 2263.71   35.54 2157.67   34.70
 1967.35   33.14 1578.90   29.69 1192.69   25.80  872.89   22.07  611.69   18.48
  568.72   17.82  449.28   15.84  439.24   15.66  416.91   15.25  439.79   15.67
  434.77   15.58  429.19   15.48  413.56   15.19  413.00   15.18  466.30   13.41
  449.33   13.16  414.62   12.65  453.96   13.23  460.11   16.44  428.97   15.88
  448.36   16.23  474.22   16.69  522.99   17.53  531.22   17.67  503.01   17.19
  530.04   17.65  534.74   17.73  542.97   17.86  522.40   17.52  583.52   18.52
  587.63   18.58  668.72   19.82  746.88   20.95  821.51   21.97  973.12   23.91
 1210.52   26.67 1439.69   29.09 1743.50   32.01 1993.24   34.22 2225.36   36.16
 2240.05   36.28 2099.02   35.12 1741.74   31.99 1471.43   29.41 1045.39   24.79
  771.56   21.29  575.88   18.40  507.71   17.27  442.49   16.13  433.08   15.95
  423.68   15.78  424.86   15.80  411.34   15.55  396.65   15.27  399.00   15.31
  423.68   15.78  411.93   15.56  429.56   15.89  411.93   15.56  411.93   15.56
  423.68   15.78  430.15   15.90  438.37   16.05  421.92   15.75  404.29   15.41
  409.58   15.51  434.85   15.99  417.34   12.87  427.25   13.02  432.41   13.10
  446.30   13.31  441.14   13.23  426.06   13.00  453.09   16.72  428.40   16.26
  461.11   16.87  422.22   16.14  416.05   16.03  404.94   15.81  419.14   16.08
  411.11   15.93  413.58   15.98  436.42   16.41  454.94   16.76  443.21   16.54
  448.77   16.64  473.46   17.10  501.23   17.59  514.20   17.82  539.51   18.25
  608.02   19.37  654.94   20.11  727.16   21.19  852.47   22.94  876.54   23.26
  920.99   23.84  903.09   23.61  780.86   21.95  708.02   20.91  577.16   18.88
  559.26   18.58  461.11   16.87  467.28   16.98  411.11   15.93  435.19   16.39
  438.89   16.46  429.01   16.27  410.49   15.92  436.42   16.41  400.62   15.73
  415.43   16.01  430.25   16.30  440.74   16.49  456.79   16.79  419.75   16.10
  431.48   16.32  464.81   16.94  431.48   16.32  431.48   16.32  427.16   16.24
  430.86   16.31  436.68   13.60  416.77   13.29  433.71   13.55  434.56   13.57
  447.27   13.76  452.35   13.84  461.54   17.20  524.36   18.33  513.46   18.14
  560.90   18.96  578.21   19.25  614.10   19.84  620.51   19.94  564.74   19.03
  575.64   19.21  526.92   18.38  487.18   17.67  404.49   16.10  454.49   17.07
  458.97   17.15  418.59   16.38  441.67   16.83  380.77   15.62  391.67   15.85
  414.10   16.29  420.51   16.42  430.77   16.62  416.03   16.33  417.95   16.37
  443.59   16.86  419.23   16.39  455.13   17.08  450.00   16.98  445.51   16.90
  411.54   16.24  433.97   16.68  380.13   15.61  423.72   16.48  394.23   15.90
  388.46   15.78  418.59   16.38  405.13   16.12  401.92   16.05  422.44   16.46
  403.85   16.09  395.51   15.92  407.05   16.15  424.36   16.49  393.59   15.88
  430.77   16.62  426.28   16.53  437.82   16.75  400.00   16.01  407.05   16.15
  398.72   15.99  415.14   13.09  405.24   12.93  443.62   13.53  415.56   13.10
  404.55   15.88  422.00   16.22  416.39   16.11  389.59   15.58  412.65   16.04
  433.22   16.43  420.76   16.19  414.52   16.07  404.55   15.88  454.42   16.83
  437.59   16.52  443.82   16.63  486.21   17.41  457.53   16.89  473.12   17.17
  498.68   17.63  491.82   17.51  440.08   16.56  449.43   16.74  442.57   16.61
  418.26   16.15  443.20   16.62  396.45   15.72  415.15   16.09  394.58   15.68
  431.35   16.40  403.93   15.87  409.54   15.98  392.08   15.63  399.56   15.78
  428.24   16.34  392.71   15.65  391.46   15.62  402.68   15.84  408.29   15.95
  407.04   15.93  402.68   15.84  407.04   15.93  391.46   15.62  392.08   15.63
  416.39   16.11  415.15   16.09  380.86   15.41  435.09   16.47  406.42   15.92
  400.81   15.81  428.24   16.34  408.91   15.97  414.52   16.07  393.80   12.63
  401.90   12.76  405.96   12.82  427.43   13.16  419.33   13.03  374.58   14.73
  378.06   14.79  403.53   15.28  422.64   15.64  380.37   14.84  417.43   15.55
  416.85   15.53  385.58   14.94  396.01   15.14  407.58   15.36  380.95   14.85
  400.64   15.23  430.16   15.78  381.53   14.86  394.85   15.12  388.48   15.00
  413.37   15.47  399.48   15.21  369.37   14.62  410.48   15.42  393.11   15.09
  425.53   15.70  433.06   15.83  411.64   15.44  419.16   15.58  413.37   15.47
  404.69   15.31  393.69   15.10  403.53   15.28  419.16   15.58  426.69   15.72
  394.85   15.12  387.90   14.99  403.53   15.28  417.43   15.55  396.58   15.15
  396.01   15.14  397.74   15.17  407.58   15.36  422.64   15.64  403.53   15.28
  413.37   15.47  383.85   14.91  415.69   15.51  393.11   15.09  396.01   15.14
  398.32   15.19  393.11   15.09  376.90   14.77  429.01   15.76  428.84   12.94
  383.18   12.23  404.25   12.56  406.20   12.59  385.52   12.27  383.05   15.01
  396.59   15.28  388.35   15.12  424.24   15.80  407.77   15.49  384.82   15.05
  409.53   15.52  439.54   16.08  390.70   15.16  406.59   15.47  401.29   15.37
  397.18   15.29  407.18   15.48  388.94   15.13  383.05   15.01  411.89   15.57
  399.53   15.33  404.82   15.43  386.58   15.08  361.28   14.58  383.05   15.01
  360.11   14.56  417.77   15.68  405.41   15.45  416.59   15.66  413.65   15.60
  431.30   15.93  486.03   16.91  477.20   16.76  553.69   18.05  679.61   20.00
  796.70   21.65  983.82   24.06 1202.12   26.60 1323.33   27.90 1336.28   28.04
 1298.03   27.64 1175.64   26.30  990.29   24.14  763.75   21.20  614.89   19.02
  488.97   16.96  436.60   16.03  416.00   15.65  406.00   15.46  410.71   15.55
  399.53   15.33  426.01   15.83  411.03   12.64  418.03   12.74  414.14   12.68
  407.54   12.58  418.80   12.76  411.11   15.51  410.53   15.49  414.04   15.56
  403.51   15.36  442.69   16.09  499.42   17.09  527.49   17.56  545.03   17.85
  574.27   18.33  651.46   19.52  611.70   18.91  567.84   18.22  502.34   17.14
  492.98   16.98  453.80   16.29  433.92   15.93  439.18   16.03  421.05   15.69
  400.00   15.29  402.92   15.35  408.77   15.46  376.61   14.84  381.87   14.94
  398.25   15.26  384.80   15.00  408.77   15.46  416.37   15.60  426.32   15.79
  409.36   15.47  399.42   15.28  435.09   15.95  412.87   15.54  423.98   15.75
  394.74   15.19  419.30   15.66  388.30   15.07  463.74   16.47  429.24   15.84
  471.93   16.61  484.80   16.84  544.44   17.84  615.20   18.97  683.63   19.99
  732.16   20.69  763.74   21.13  825.15   21.97  937.43   23.41 1214.04   26.65
 1490.06   29.52 1849.70   26.89 2114.34   28.75 2307.05   30.03 2299.23   29.98
 2025.60   28.14 1650.74   25.40 1373.97   28.24  954.87   23.54  729.65   20.58
  525.90   17.47  482.95   16.74  443.48   16.04  449.86   16.16  416.78   15.55
  444.64   16.07  401.68   15.27  408.07   15.39  410.97   15.45  401.68   15.27
  399.94   15.24  410.97   15.45  417.36   15.56  397.62   15.19  428.38   15.77
  458.57   16.32  458.57   16.32  534.03   17.61  640.84   19.29  860.25   22.35
 1194.60   26.33 1880.13   33.04 3055.00   42.11 4834.71   52.98 7200.70   64.65
10165.14   76.8113085.47   87.1515203.02   93.9415633.14   95.2614227.83   90.88
11584.97   82.00 8417.94   69.90 5263.68   55.28 3010.30   41.80 1637.50   30.83
  913.66   23.03  633.29   19.17  559.57   18.02  545.06   17.79  576.98   18.30
  571.76   18.22  581.63   18.37  634.45   19.19  709.33   20.29  798.18   18.15
  944.36   19.75 1219.37   22.44 1536.49   25.19 1820.17   27.42 2077.84   29.29
 2070.77   36.58 1999.03   35.94 1660.37   32.76 1252.54   28.45  910.00   24.25
  718.05   21.54  531.91   18.54  480.21   17.62  436.90   16.80  414.28   16.36
  423.33   16.54  436.90   16.80  412.34   16.32  398.13   16.04  409.11   16.26
  409.11   16.26  371.63   15.50  380.03   15.67  400.71   16.09  390.37   15.88
  415.58   16.39  437.55   16.82  400.71   16.09  459.52   17.23  501.53   18.00
  504.12   18.05  542.90   18.73  570.69   19.21  539.02   18.66  550.01   18.85
  540.96   18.70  555.18   18.94  502.18   18.02  471.80   17.46  440.78   16.88
  407.82   16.24  420.75   16.49  429.15   16.65  389.08   15.86  417.51   16.43
  404.59   16.17  394.25   15.96  389.72   15.87  397.48   16.03  405.24   16.18
  378.74   15.65  379.38   15.66  386.49   15.80  407.17   16.22  368.74   12.43
  414.00   13.17  430.34   13.43  411.48   13.13  425.31   13.35  409.56   16.32
  410.86   16.34  431.66   16.75  405.66   16.24  401.76   16.16  396.55   16.06
  401.76   16.16  340.00   14.87  406.31   16.25  349.10   15.06  371.20   15.53
  361.45   15.33  388.75   15.90  379.00   15.70  379.00   15.70  372.50   15.56
  384.20   15.80  340.65   14.88  387.45   15.87  389.40   15.91  363.40   15.37
  399.15   16.11  369.90   15.51  409.56   16.32  382.25   15.76  386.80   15.86
  402.41   16.17  397.85   16.08  397.20   16.07  373.80   15.59  383.55   15.79
  382.90   15.78  395.90   16.04  401.76   16.16  425.81   16.64  418.66   16.50
  438.16   16.88  477.17   17.61  497.32   17.98  503.82   18.10  469.36   17.47
  452.46   17.15  438.81   16.89  464.81   17.38  438.81   16.89  381.60   15.75
  381.60   15.75  377.05   15.66  399.80   16.12  384.92   12.82  375.09   12.66
  387.91   12.87  364.84   12.48  386.78   15.35  372.16   15.06  396.53   15.54
  405.06   15.71  374.60   15.11  393.48   15.48  387.39   15.36  393.48   15.48
  391.66   15.45  378.86   15.19  339.88   14.39  361.81   14.85  370.95   15.03
  357.55   14.76  385.56   15.32  370.95   15.03  378.86   15.19  371.55   15.04
  408.10   15.77  369.73   15.01  371.55   15.04  380.08   15.22  343.54   14.47
  389.22   15.40  376.43   15.14  394.70   15.51  402.01   15.65  377.65   15.17
  407.49   15.75  386.17   15.34  392.87   15.47  383.13   15.28  374.60   15.11
  408.10   15.77  411.76   15.84  438.56   16.34  507.39   17.58  560.38   18.48
  682.20   20.38  741.89   21.26  850.31   22.76  860.67   22.90  832.04   22.51
  785.14   21.87  646.26   19.84  580.48   18.80  482.41   17.14  421.50   16.02
  411.76   15.84  405.06   15.71  381.24   12.35  381.24   12.35  380.84   12.34
  358.84   11.98  374.84   12.25  348.69   14.49  391.45   15.35  387.83   15.28
  402.89   15.58  442.04   16.32  443.84   16.35  492.02   17.21  611.86   19.20
  757.60   21.36 1014.15   24.71 1365.85   28.68 1794.64   32.88 2134.90   35.86
 2330.62   37.46 2294.49   37.17 1981.93   34.55 1673.59   31.75 1188.80   26.76
  887.68   23.12  624.51   19.39  505.27   17.44  444.44   16.36  393.26   15.39
  355.92   14.64  361.34   14.75  364.95   14.83  363.14   14.79  357.12   14.67
  378.20   15.09  367.96   14.89  366.76   14.86  343.27   14.38  360.73   14.74
  381.21   15.15  361.34   14.75  357.72   14.68  360.13   14.73  357.72   14.68
  354.71   14.62  359.53   14.71  345.68   14.43  363.14   14.79  375.19   15.03
  373.38   15.00  382.41   15.18  357.12   14.67  387.83   15.28  345.68   14.43
  374.59   15.02  364.90   12.23  364.90   12.23  359.16   12.14  375.15   12.40
  365.72   12.25  372.14   15.08  372.14   15.08  368.47   15.01  354.41   14.72
  358.69   14.80  364.80   14.93  371.52   15.07  388.02   15.40  375.80   15.15
  415.52   15.93  396.58   15.57  482.13   17.16  511.46   17.68  596.39   19.09
  608.00   19.28  766.88   21.65  934.31   23.89 1274.67   27.91 1776.96   32.95
 2347.08   37.87 3124.96   43.70 3721.97   47.69 3926.67   48.98 3855.18   48.54
 3377.33   45.43 2792.55   41.31 1946.23   34.49 1375.50   28.99  952.03   24.12
  704.55   20.75  507.18   17.60  431.41   16.24  390.47   15.45  407.58   15.78
  359.91   14.83  377.64   15.19  372.75   15.09  378.25   15.20  364.80   14.93
  347.69   14.58  349.53   14.61  350.14   14.63  402.69   15.69  344.64   14.51
  366.03   14.96  353.19   14.69  353.80   14.70  402.69   15.69  367.25   14.98
  365.65   12.25  361.14   12.17  384.12   12.56  384.94   12.57  386.58   12.60
  355.34   15.00  409.18   16.10  430.72   16.52  409.18   16.10  482.66   17.48
  516.23   18.08  612.51   19.70  698.02   21.03  912.75   24.04 1162.95   27.14
 1430.88   30.11 1754.55   33.34 1857.17   34.30 1777.99   33.56 1630.40   32.14
 1320.67   28.92 1019.16   25.41  767.70   22.05  582.74   19.21  463.02   17.13
  459.86   17.07  418.69   16.28  394.62   15.81  379.41   15.50  388.28   15.68
  359.78   15.10  354.71   14.99  411.72   16.15  383.85   15.59  378.15   15.48
  383.21   15.58  411.08   16.14  411.72   16.15  450.36   16.89  459.22   17.06
  528.27   18.29  540.30   18.50  551.70   18.69  525.73   18.25  508.00   17.94
  452.26   16.93  454.79   16.97  417.42   16.26  421.22   16.33  396.52   15.85
  367.38   15.25  381.95   15.55  383.21   15.58  351.54   14.92  377.74   12.78
  358.29   12.44  353.11   12.35  379.47   12.81  392.00   13.02  393.42   16.01
  429.25   16.72  397.33   16.09  405.15   16.24  396.03   16.06  396.03   16.06
  375.18   15.63  380.39   15.74  384.30   15.82  345.22   15.00  345.87   15.01
  369.32   15.51  366.06   15.44  387.56   15.89  369.97   15.52  411.01   16.36
  366.06   15.44  372.58   15.58  384.30   15.82  336.10   14.80  378.44   15.70
  392.12   15.98  376.49   15.66  381.70   15.77  373.23   15.59  381.70   15.77
  396.03   16.06  352.39   15.15  398.63   16.11  363.46   15.39  348.48   15.07
  373.88   15.61  399.93   16.14  388.21   15.90  403.19   16.21  476.14   17.61
  502.20   18.09  549.75   18.92  593.39   19.66  618.14   20.07  642.24   20.45
  632.47   20.30  582.32   19.48  524.34   18.48  459.21   17.29  438.37   16.90
  411.66   16.37  422.08   16.58  406.45   16.27  416.85   13.34  413.01   13.27
  406.61   13.17  381.87   12.76  385.28   12.82  384.84   15.79  393.91   15.98
  387.43   15.84  380.30   15.70  402.33   16.15  393.91   15.98  356.33   15.19
  377.71   15.64  394.56   15.99  355.04   15.17  403.63   16.17  358.28   15.24
  404.92   16.20  389.37   15.88  360.87   15.29  344.02   14.93  386.14   15.82
  357.63   15.22  358.92   15.25  366.05   15.40  384.84   15.79  408.81   16.27
  409.46   16.29  463.88   17.34  526.08   18.46  591.51   19.58  744.41   21.96
  758.02   22.16  795.59   22.70  826.04   23.13  778.75   22.46  691.93   21.17
  662.78   20.72  592.16   19.59  524.78   18.44  488.50   17.79  504.70   18.08
  491.09   17.84  461.29   17.29  460.64   17.28  457.40   17.21  454.81   17.17
  401.68   16.13  412.70   16.35  427.60   16.64  467.77   17.41  518.95   18.34
  572.08   19.25  644.64   20.44  769.17   17.90  900.83   19.37  973.33   20.14
 1019.17   20.61 1064.58   21.06 1197.00   26.81 1400.60   29.00 1752.55   32.44
 2284.68   37.04 2873.87   41.55 3506.91   45.89 3863.66   48.17 3924.92   48.55
 3648.05   46.81 3053.45   42.82 2483.48   38.62 1837.84   33.22 1334.53   28.31
  954.95   23.95  689.49   20.35  523.72   17.74  458.26   16.59  403.00   15.56
  411.41   15.72  386.79   15.24  368.77   14.88  371.77   14.94  381.38   15.13
  396.40   15.43  394.59   15.39  378.38   15.07  412.61   15.74  366.37   14.83
  361.56   14.74  372.37   14.95  351.95   14.54  363.36   14.77  376.58   15.04
  360.96   14.72  353.75   14.58  384.38   15.19  372.37   14.95  383.18   15.17
  413.81   15.77  440.84   16.27  479.28   16.97  539.34   18.00  599.40   18.97
  714.71   20.72  783.78   21.70  766.37   21.45  752.55   21.26  685.29   20.29
  621.71   15.87  594.17   15.51  501.82   14.26  465.37   13.73  401.78   12.76
  404.21   12.80  381.81   15.16  347.49   14.47  342.67   14.37  351.70   14.55
  346.88   14.45  376.99   15.07  372.78   14.98  352.91   14.58  375.19   15.03
  380.61   15.14  375.79   15.04  386.03   15.25  385.43   15.24  390.24   15.33
  457.09   16.59  453.48   16.53  551.64   18.23  670.88   20.10  801.57   21.97
 1031.01   24.92 1318.88   28.18 1507.38   30.13 1583.26   30.88 1553.75   30.59
 1509.18   30.15 1294.79   27.92 1082.20   25.53  885.88   23.10  708.82   20.66
  617.89   19.29  532.37   17.91  469.14   16.81  442.04   16.32  390.24   15.33
  365.55   14.84  373.38   15.00  358.33   14.69  373.38   15.00  358.93   14.70
  356.52   14.65  372.78   14.98  361.94   14.76  352.30   14.57  348.09   14.48
  354.71   14.62  357.72   14.68  364.95   14.83  336.65   14.24  333.64   11.65
  361.71   12.13  381.24   12.45  345.44   11.86  377.99   12.40  382.06   12.47
  400.94   15.82  399.06   15.79  425.29   16.30  384.07   15.49  442.78   16.63
  425.92   16.31  432.16   16.43  434.66   16.48  394.07   15.69  365.34   15.10
  380.95   15.42  354.10   14.87  370.34   15.21  367.21   15.14  367.21   15.14
  349.73   14.78  359.09   14.98  354.10   14.87  369.71   15.20  375.96   15.32
  367.21   15.14  345.98   14.70  375.33   15.31  339.11   14.55  367.21   15.14
  355.97   14.91  355.35   14.90  340.36   14.58  330.99   14.38  362.22   15.04
  365.96   15.12  338.49   14.54  385.32   15.51  330.99   14.38  351.60   14.82
  359.09   14.98  373.46   15.27  343.48   14.65  373.46   15.27  396.57   15.74
  385.95   15.53  392.82   15.66  398.44   15.77  405.93   15.92  482.12   17.35
  477.13   17.26  573.93   18.93  630.76   19.85  732.38   17.65  830.62   18.80
  985.43   20.47 1215.10   22.73 1524.72   25.47 1962.84   35.62 2498.63   40.19
 3107.45   44.81 3602.52   48.25 3814.51   49.65 3673.61   48.73 3440.94   47.16
 2868.31   43.06 2309.26   38.63 1753.43   33.66 1365.00   29.70 1010.83   25.56
  784.62   22.52  584.26   19.43  511.88   18.19  442.07   16.90  381.32   15.70
  368.40   15.43  386.49   15.80  395.54   15.99  395.54   15.99  365.16   15.36
  366.46   15.39  381.32   15.70  376.80   15.61  378.09   15.63  341.25   14.85
  338.02   14.78  376.15   15.59  358.05   15.21  356.12   15.17  350.95   15.06
  343.84   14.91  358.05   15.21  362.58   15.31  335.43   14.72  380.03   15.67
  344.48   14.92  361.29   15.28  328.97   14.58  353.53   15.12  364.52   15.35
  356.76   15.18  362.58   15.31  353.53   15.12  364.52   15.35  341.90   14.87
  358.05   15.21  376.15   15.59  372.36   12.92  354.87   12.62  386.27   13.16
  391.66   13.26  394.35   13.30  423.26   17.19  411.38   16.95  502.88   18.74
  570.63   19.96  655.14   21.39  785.05   23.42  998.78   26.41 1209.01   29.06
 1496.77   32.33 1790.82   35.37 1989.17   37.27 2139.34   38.66 2019.21   37.55
 1813.17   35.59 1548.45   32.89 1262.79   29.70 1105.64   27.79  955.47   25.83
  766.89   23.14  701.24   22.13  602.06   20.51  569.93   19.95  510.56   18.88
  486.82   18.44  451.89   17.77  427.45   17.28  384.84   16.39  392.53   16.56
  356.21   15.77  363.19   15.93  365.99   15.99  389.03   16.48  388.34   16.47
  349.92   15.63  352.72   15.70  344.33   15.51  382.05   16.34  362.49   15.91
  375.07   16.19  354.81   15.74  382.75   16.35  365.29   15.97  361.10   15.88
  403.00   16.78  382.05   16.34  377.86   16.25  396.72   16.65  402.30   16.76
  426.75   17.26  412.78   16.98  457.78   14.19  454.27   14.13  530.78   15.28
  598.07   16.22  626.64   20.28  750.00   22.18  884.51   24.09 1193.57   27.99
 1475.07   31.11 1866.14   34.99 2190.29   37.91 2458.01   40.16 2539.37   40.82
 2581.36   41.16 2357.61   39.33 2097.77   37.10 1710.63   33.50 1403.54   30.35
 1066.93   26.46  854.99   23.69  727.03   21.84  626.64   20.28  562.99   19.22
  530.18   18.65  510.50   18.30  631.89   20.36  700.13   21.43  828.08   23.31
 1127.30   27.20 1463.91   30.99 1866.80   35.00 2525.59   40.71 3022.31   44.53
 3543.96   48.22 3863.52   50.35 3860.24   50.33 3628.61   48.80 3307.09   46.58
 2702.76   42.11 2238.85   38.33 1721.78   33.61 1526.25   31.65 1235.56   28.47
 1158.79   27.57 1066.27   26.45 1059.06   26.36 1068.24   26.48 1095.80   26.81
  987.53   25.46  984.91   25.42  955.38   25.04  900.26   24.30  770.34   22.48
  644.75   16.65  565.66   15.59  510.64   14.82  490.01   14.51  438.86   13.73
  410.40   15.80  403.71   15.67  400.06   15.60  392.16   15.44  435.32   16.27
  459.04   16.71  451.13   16.56  507.07   17.56  575.77   18.71  635.35   19.65
  720.47   20.93  816.54   22.28  803.16   22.10  880.98   23.14  829.31   22.45
  752.70   21.39  699.19   20.62  621.98   19.45  530.17   17.95  491.26   17.28
  461.47   16.75  435.32   16.27  400.67   15.61  361.76   14.83  391.55   15.43
  330.75   14.18  378.78   15.18  364.19   14.88  350.81   14.60  354.46   14.68
  347.77   14.54  344.13   14.46  382.43   15.25  355.68   14.71  352.03   14.63
  375.13   15.10  334.40   14.26  353.25   14.66  341.09   14.40  360.54   14.81
  358.72   14.77  333.79   14.25  331.97   14.21  369.05   14.98  331.36   14.19
  362.97   14.86  341.69   14.41  361.76   14.83  345.95   14.50  358.52   12.04
  356.90   12.02  345.98   11.83  365.81   12.17  358.52   12.04  371.07   12.25
  374.46   15.16  383.06   15.33  379.99   15.27  380.60   15.29  375.69   15.19
  363.41   14.94  372.62   15.12  386.74   15.41  376.92   15.21  345.61   14.57
  370.78   15.09  386.74   15.41  378.76   15.25  392.27   15.52  374.46   15.16
  395.95   15.59  405.77   15.78  439.53   16.43  486.80   17.29  484.96   17.25
  630.45   19.67  633.52   19.72  756.29   21.55  829.96   22.57  868.63   23.09
  934.93   23.96  942.91   24.06  960.71   24.28  898.10   23.48  803.56   22.21
  688.77   20.56  618.17   19.48  576.43   18.81  498.47   17.49  466.54   16.92
  432.17   16.29  408.84   15.84  427.87   16.21  448.13   16.59  468.39   16.96
  503.38   17.58  499.08   17.50  547.58   18.33  488.64   17.32  532.23   18.08
  507.06   17.64  520.56   17.88  489.26   17.33  409.45   15.85  433.17   13.21
  382.85   12.41  382.85   12.41  369.16   12.19  380.61   15.05  358.01   14.59
  360.39   14.64  335.41   14.12  335.41   14.12  352.66   14.48  314.01   13.67
  316.98   13.73  331.25   14.04  336.01   14.14  328.87   13.99  307.46   13.52
  361.58   14.66  359.20   14.62  335.41   14.12  331.85   14.05  382.99   15.09
  354.45   14.52  329.47   14.00  355.63   14.54  328.28   13.97  344.93   14.32
  320.55   13.81  331.25   14.04  314.60   13.68  328.28   13.97  352.66   14.48
  337.20   14.16  333.04   14.07  343.15   14.29  338.39   14.19  340.77   14.24
  352.66   14.48  331.85   14.05  339.58   14.21  321.14   13.82  297.95   13.31
  327.68   13.96  350.28   14.43  363.37   14.70  337.20   14.16  346.12   14.35
  359.20   14.62  375.85   14.95  368.12   14.80  383.59   15.10  388.94   15.21
  395.48   15.34  454.95   16.45  479.33   16.88  521.47   14.55  583.61   15.40
  646.56   16.20  696.11   16.81  771.51   21.72  867.49   23.03  975.09   24.42
 1082.68   25.73 1240.41   27.54 1374.29   28.99 1441.54   29.69 1393.24   29.18
 1379.80   29.04 1272.20   27.89 1120.59   26.17 1017.27   24.94  878.50   23.17
  747.06   21.37  673.09   20.29  535.53   18.09  483.57   17.19  451.17   16.61
  412.04   15.87  365.58   14.95  377.81   15.20  340.52   14.43  357.63   14.79
  350.30   14.63  355.80   14.75  327.68   14.15  324.62   14.09  343.57   14.49
  342.35   14.47  349.08   14.61  371.69   15.07  394.93   15.54  410.21   15.84
  382.70   15.30  425.49   16.13  407.15   15.78  443.83   16.47  508.02   17.62
  522.70   17.88  538.59   18.15  547.15   18.29  574.05   18.73  545.32   18.26
  532.48   18.04  510.47   17.67  508.64   17.63  454.84   16.68  446.89   16.53
  395.54   15.55  392.82   12.62  374.99   12.33  370.53   12.26  375.39   12.34
  362.42   12.12  393.23   12.63  386.54   15.49  415.70   16.06  438.65   16.50
  469.68   17.07  487.05   17.38  518.07   17.93  549.09   18.46  586.94   19.08
  585.70   19.06  629.13   19.76  651.47   20.10  648.98   20.07  612.38   19.49
  540.41   18.31  483.33   17.32  461.61   16.92  434.93   16.43  433.07   16.39
  433.07   16.39  381.57   15.39  384.05   15.44  369.78   15.15  381.57   15.39
  340.00   14.52  353.65   14.81  353.03   14.80  322.63   14.15  354.27   14.83
  315.81   14.00  356.76   14.88  323.25   14.16  331.32   14.34  349.31   14.72
  348.69   14.71  349.93   14.73  344.97   14.63  327.59   14.26  331.94   14.35
  378.47   15.32  364.20   15.03  352.41   14.79  382.19   15.40  406.39   15.88
  390.88   15.57  438.65   16.50  444.24   16.60  482.71   17.31  523.65   18.02
  568.91   15.27  555.79   15.09  623.83   15.99  684.09   16.74  728.35   17.28
  786.56   17.96  819.17   22.22  877.64   23.00  908.98   23.41  877.03   22.99
  889.69   23.16  831.83   22.39  760.10   21.40  742.01   21.15  634.12   19.55
  585.90   18.79  569.62   18.53  546.71   18.15  499.70   17.36  514.17   17.60
  509.95   17.53  511.75   17.56  543.10   18.09  608.20   19.15  657.63   19.91
  707.05   20.64  769.74   21.54  792.65   21.86  866.18   22.85  861.97   22.79
  802.89   22.00  742.01   21.15  760.10   21.40  706.45   20.64  652.80   19.84
  583.48   18.75  551.54   18.23  495.48   17.28  484.63   17.09  443.64   16.35
  436.41   16.22  434.00   16.17  440.02   16.29  430.38   16.11  424.35   15.99
  411.69   15.75  433.39   16.16  435.20   16.20  413.50   15.79  435.20   16.20
  441.83   16.32  448.46   16.44  457.50   16.61  471.78   13.67  495.94   14.02
  546.64   14.72  575.16   15.09  664.69   16.23  765.30   17.41  919.40   23.30
 1040.45   24.79 1199.29   26.61 1401.24   28.76 1590.20   30.64 1727.19   31.94
 1782.11   32.44 1844.70   33.00 1847.06   33.03 1744.91   32.10 1677.59   31.47
 1469.74   29.46 1319.75   27.92 1119.57   25.71  994.39   24.23  874.52   22.72
  739.30   20.89  624.74   19.21  581.05   18.52  511.96   17.39  434.01   16.01
  422.20   15.79  392.68   15.23  368.47   14.75  342.49   14.22  337.17   14.11
  337.76   14.12  354.89   14.48  339.53   14.16  314.14   13.62  327.72   13.91
  330.68   13.97  348.98   14.36  320.05   13.75  359.02   14.56  333.63   14.04
  324.77   13.85  305.88   13.44  350.16   14.38  315.32   13.65  307.06   13.47
  322.41   13.80  361.38   14.61  334.81   14.06  335.99   14.09  331.27   13.99
  341.30   14.20  313.55   13.61  321.82   13.79  351.96   11.78  337.37   11.53
  325.55   11.33  317.27   11.18  347.62   11.70  351.62   14.34  346.35   14.23
  322.95   13.75  308.91   13.44  344.60   14.20  331.14   13.92  336.99   14.04
  318.27   13.65  337.57   14.05  341.67   14.14  338.75   14.08  320.02   13.68
  334.06   13.98  322.36   13.73  327.63   13.84  360.39   14.52  339.33   14.09
  350.45   14.32  365.07   14.61  358.64   14.49  360.39   14.52  368.00   14.67
  399.59   15.29  386.72   15.04  413.63   15.56  439.37   16.03  493.78   17.00
  518.36   17.41  538.83   17.76  612.55   18.93  683.34   19.99  768.76   21.21
  895.13   22.88 1019.16   24.42 1118.62   25.58 1281.85   27.39 1466.73   29.29
 1535.18   29.97 1663.30   31.19 1687.87   31.42 1774.46   32.22 1744.62   31.95
 1644.58   31.02 1494.81   29.57 1360.83   28.22 1291.21   27.48 1120.37   25.60
  979.38   23.94  869.53   18.60  754.57   17.32  677.80   16.42  626.89   15.79
  581.94   15.21  552.02   18.30  528.97   17.91  518.05   17.73  610.86   19.25
  608.43   19.21  641.80   19.73  638.16   19.68  658.17   19.98  704.88   20.68
  682.44   20.35  635.12   19.63  664.24   20.07  591.45   18.94  585.99   18.85
  524.11   17.83  510.16   17.59  481.65   17.09  413.10   15.83  448.89   16.50
  440.40   16.34  398.54   15.55  370.03   14.98  391.87   15.42  383.99   15.26
  368.21   14.95  366.39   14.91  351.23   14.60  331.82   14.19  351.84   14.61
  340.31   14.37  327.57   14.10  354.87   14.67  361.54   14.81  360.93   14.80
  353.05   14.63  328.78   14.12  339.10   14.34  371.25   15.01  368.21   14.95
  367.00   14.92  367.61   14.93  396.12   15.50  377.31   15.13  409.46   15.76
  476.19   17.00  442.22   16.38  473.16   16.94  553.84   18.33  553.23   18.32
  640.58   19.71  724.38   17.07  806.03   18.01  917.45   19.21 1034.89   20.40
 1139.47   21.41 1226.18   27.32 1322.37   28.37 1394.82   29.14 1449.01   29.70
 1417.35   29.38 1399.09   29.19 1316.89   28.32 1250.53   27.59 1139.73   26.34
  977.17   24.39  938.81   23.91  784.78   21.86  746.42   21.32  622.22   19.46
  586.91   18.90  502.28   17.49  487.67   17.23  459.67   16.73  397.56   15.56
  427.40   16.13  389.04   15.39  337.29   14.33  364.08   14.89  370.17   15.01
  361.64   14.84  358.60   14.78  345.81   14.51  351.90   14.64  400.61   15.62
  363.47   14.88  401.22   15.63  424.96   16.09  393.91   15.49  468.19   16.88
  472.45   16.96  527.85   17.93  558.90   18.45  567.43   18.59  602.74   19.16
  625.27   19.51  673.97   20.26  677.63   20.31  647.18   19.85  667.28   20.16
  681.89   20.38  688.58   20.48  652.05   19.92  639.27   19.73  657.53   20.01
  653.98   16.10  654.78   16.11  659.93   16.17  719.38   16.89  741.45   20.77
  843.30   22.15  939.91   23.39 1021.97   24.39 1041.18   24.62 1144.19   25.81
 1189.00   26.31 1246.04   26.93 1336.24   27.89 1257.67   27.05 1266.99   27.15
 1235.56   26.82 1170.96   26.11 1126.15   25.60 1041.18   24.62  959.12   23.63
  864.25   22.43  833.41   22.02  732.14   20.64  630.29   19.15  600.03   18.69
  573.84   18.27  529.03   17.55  486.54   16.83  433.00   15.87  431.25   15.84
  367.23   14.62  395.17   15.17  377.71   14.83  396.92   15.20  377.13   14.81
  323.59   13.72  339.88   14.06  376.55   14.80  331.73   13.89  347.45   14.22
  369.56   14.67  364.32   14.56  364.32   14.56  326.49   13.78  387.02   15.01
  341.04   14.09  355.59   14.39  404.48   15.34  403.32   15.32  417.87   15.59
  407.39   15.40  437.07   15.95  442.89   16.05  479.56   16.71  510.37   14.27
  537.88   14.64  525.12   14.47  559.41   14.93  580.94   15.22  571.77   18.50
  558.60   18.29  578.96   18.62  574.17   18.54  559.20   18.30  538.84   17.96
  527.47   17.77  513.10   17.53  501.72   17.33  510.10   17.48  525.67   17.74
  546.03   18.08  583.74   18.69  585.54   18.72  639.43   19.57  707.68   20.58
  733.42   20.95  790.90   21.76  857.96   22.66 1007.03   24.55 1099.84   25.66
 1281.25   27.70 1481.22   29.78 1718.31   32.07 1914.68   33.86 2175.12   36.09
 2343.96   37.46 2593.62   39.41 2729.53   40.43 2814.55   41.05 2857.06   41.36
 2898.37   41.66 2889.39   41.59 2763.06   40.67 2612.18   39.55 2373.30   37.70
 2123.63   35.66 1856.01   33.33 1659.03   31.52 1471.64   29.68 1308.79   27.99
 1113.61   25.82  947.16   23.81  830.41   22.30  726.24   20.85  649.00   19.71
  592.13   18.83  548.42   18.12  448.44   16.39  440.34   13.45  439.52   13.44
  405.01   12.90  380.78   12.51  375.85   12.43  386.74   15.78  382.24   15.68
  384.81   15.74  428.57   16.61  416.34   16.37  451.09   17.04  420.21   16.44
  471.04   17.41  510.94   18.13  484.56   17.66  527.03   18.42  522.52   18.34
  566.92   19.10  552.77   18.86  572.72   19.20  528.96   18.45  528.96   18.45
  574.65   19.23  561.13   19.00  540.54   18.65  501.93   17.97  479.41   17.56
  467.18   17.34  433.08   16.69  415.70   16.36  440.80   16.84  409.27   16.23
  380.31   15.64  368.73   15.40  382.88   15.70  365.51   15.34  377.09   15.58
  349.42   15.00  353.28   15.08  368.08   15.39  348.78   14.98  338.48   14.76
  344.92   14.90  388.67   15.81  373.23   15.50  379.67   15.63  373.87   15.51
  375.80   15.55  386.74   15.78  375.80   15.55  401.54   16.07  391.25   15.87
  444.66   16.92  440.30   13.51  479.68   14.10  484.25   14.17  524.46   14.75
  542.70   15.00  582.50   15.54  593.00   19.12  595.47   19.16  668.21   20.30
  650.33   20.02  644.17   19.93  639.24   19.85  662.66   20.21  659.58   20.16
  690.40   20.63  649.71   20.01  635.54   19.79  605.33   19.32  609.65   19.39
  586.22   19.01  583.76   18.97  560.33   18.59  557.25   18.53  564.03   18.65
  563.42   18.64  631.84   19.74  581.91   18.94  639.24   19.85  692.86   20.67
  745.26   21.43  813.68   22.40  884.57   23.35  957.31   24.29 1054.09   25.49
 1163.82   26.78 1333.33   28.67 1433.81   29.73 1507.17   30.48 1566.96   31.08
 1680.38   32.18 1627.37   31.67 1681.00   32.19 1636.62   31.76 1595.32   31.36
 1592.23   31.33 1541.69   30.83 1553.40   30.94 1442.44   29.82 1296.96   28.28
 1206.97   27.28 1031.90   25.22  994.91   24.76  939.44   24.06  858.68   23.01
  811.84   22.37  717.55   16.99  697.44   16.75  655.20   16.23  592.46   15.44
  590.45   15.41  544.13   17.78  520.33   17.38  514.52   17.29  494.77   16.95
  484.90   16.78  478.51   16.67  500.58   17.05  512.78   17.26  534.26   17.61
  544.72   17.79  597.56   18.63  640.53   19.29  673.64   19.78  720.09   20.45
  767.71   21.11  835.08   22.02  874.56   22.54  879.21   22.60  944.83   23.42
  949.48   23.48  965.74   23.68  971.54   23.75  977.35   23.82  983.74   23.90
  957.03   23.57  944.83   23.42  923.34   23.16  869.34   22.47  861.21   22.36
  813.59   21.74  704.99   20.23  708.48   20.28  671.31   19.74  607.43   18.78
  541.81   17.74  521.49   17.40  476.77   16.64  426.25   15.73  452.96   16.22
  422.76   15.67  388.50   15.02  391.41   15.08  377.47   14.81  390.24   15.05
  376.89   14.79  371.08   14.68  331.59   13.88  345.53   14.17  369.92   14.66
  358.49   11.76  361.18   11.80  341.52   11.47  354.24   11.69  338.08   13.95
  372.07   14.64  361.12   14.42  354.79   14.29  382.43   14.84  408.35   15.34
  385.31   14.90  423.33   15.61  408.35   15.34  444.64   16.00  407.78   15.33
  466.52   16.39  482.65   16.67  503.38   17.03  507.99   17.10  539.67   17.63
  590.35   18.44  627.21   19.01  682.51   19.83  721.67   20.39  809.79   21.60
  811.52   21.62  901.94   22.79  948.02   23.37 1015.98   24.19 1024.62   24.29
 1096.62   25.13 1117.35   25.37 1104.10   25.22 1155.36   25.80 1091.43   25.07
 1142.12   25.65 1057.45   24.68 1058.60   24.69  998.13   23.98  935.35   23.21
  882.94   22.55  835.13   21.93  782.15   21.22  740.10   20.65  718.21   20.34
  660.04   19.50  611.09   18.76  574.80   18.20  554.07   17.86  499.35   16.96
  491.86   16.83  487.26   16.75  496.47   16.91  500.46   14.25  481.38   13.98
  470.83   13.82  501.67   14.27  521.56   14.55  532.93   14.71  541.33   18.40
  573.21   18.93  583.84   19.10  666.35   20.41  657.60   20.27  764.49   21.86
  758.87   21.78  818.88   22.62  875.76   23.40  917.02   23.94  972.03   24.65
 1036.41   25.45 1067.67   25.83 1087.67   26.07 1070.17   25.86 1096.42   26.18
 1096.42   26.18 1112.67   26.37 1128.93   26.56 1080.17   25.98 1051.41   25.64
 1041.41   25.51  974.53   24.68  938.90   24.23  930.77   24.12  902.02   23.75
  834.51   22.84  878.26   23.43  830.13   22.78  822.63   22.68  819.50   22.63
  855.13   23.12  837.01   22.87  895.14   23.65  957.65   24.47  978.28   24.73
 1038.91   25.48 1100.80   26.23 1127.05   26.54 1180.18   27.16 1239.57   27.84
 1258.32   28.05 1227.07   27.70 1256.45   28.03 1250.82   27.96 1300.20   28.51
 1247.69   27.93 1203.31   27.43 1252.07   27.98 1150.18   26.81 1128.30   26.56
 1085.17   26.04 1017.66   25.22  939.52   24.23  832.99   33.84  776.63   32.67
  729.90   31.67  695.53   30.92  655.67   30.02  560.82   27.76  551.20   27.53
  518.21   26.69  472.85   25.49  467.35   25.35  459.11   25.12  463.23   25.23
  406.87   23.65  430.24   24.32  395.88   23.33  391.75   23.21  357.39   22.16
  405.50   23.61  416.49   23.93  336.77   21.52  379.38   22.84  378.01   22.79
  412.37   23.81  384.88   23.00  435.74   24.47  406.87   23.65  435.74   24.47
  393.13   23.25  454.98   25.01  457.73   25.08  460.48   25.16  533.33   27.08
  503.09   26.30  537.46   27.18  538.83   27.22  516.84   26.65  533.33   27.08
  614.43   29.06  547.08   27.42  530.58   27.01  529.21   26.97  551.20   27.53
  525.09   26.87  476.98   25.61  508.59   26.44  531.96   27.04  493.47   26.04
  497.59   26.15  508.59   26.44  500.34   26.23  503.09   26.30  468.73   25.38
  419.24   24.01                                                                