                                                                                
BANK 1 2431 487 CONST  602.500    5.000 0 0 ESD                                 
  499.29   23.80  491.35   23.61  552.62   25.04  473.19   23.17  536.74   24.68
  516.31   24.21  511.77   24.10  523.12   24.36  491.35   23.61  557.16   25.14
  487.94   23.53  478.87   23.31  452.77   22.67  527.66   24.47  541.28   24.78
  495.89   23.72  511.77   24.10  534.47   24.63  489.08   23.56  492.48   23.64
  495.89   23.72  536.74   24.68  476.60   23.26  494.75   23.69  474.33   23.20
  478.87   23.31  486.81   23.50  501.56   23.86  458.44   22.81  494.75   23.69
  511.77   24.10  456.17   22.75  487.94   23.53  509.50   24.04  487.94   23.53
  484.54   23.45  501.56   23.86  465.25   22.98  498.16   23.78  539.01   24.73
  450.50   22.61  467.52   23.03  482.27   23.39  487.94   23.53  473.19   23.17
  540.14   24.76  445.96   22.50  457.30   22.78  501.56   23.86  487.94   23.53
  482.27   23.39  487.94   23.53  505.30   16.90  480.99   16.49  503.04   16.86
  487.78   16.60  506.43   16.92  499.08   16.80  518.86   17.13  465.73   16.22
  463.47   16.19  492.86   16.69  482.13   16.51  474.21   16.37  497.95   16.78
  482.13   16.51  466.86   16.24  468.56   16.27  491.73   16.67  482.13   16.51
  479.30   16.46  488.34   16.61  469.69   16.29  504.17   16.88  494.56   16.72
  495.13   16.73  476.47   16.41  471.95   16.33  478.17   16.44  490.60   16.65
  469.13   16.28  477.60   16.43  483.82   16.54  465.73   16.22  510.39   16.98
  477.60   16.43  464.04   16.20  487.21   16.59  484.39   16.55  469.13   16.28
  498.52   16.79  495.13   16.73  479.30   16.46  473.08   16.35  440.30   15.78
  483.26   16.53  471.95   16.33  500.21   16.81  467.43   16.25  454.43   16.03
  452.73   16.00  469.13   16.28  467.43   16.25  498.52   16.79  458.39   16.10
  501.72   13.68  452.52   12.99  473.02   13.28  483.46   13.42  487.56   13.48
  470.79   13.25  473.77   13.29  496.13   13.60  470.16   16.16  464.06   16.05
  491.81   16.52  476.82   16.27  436.30   15.56  486.82   16.44  502.36   16.70
  476.82   16.27  461.84   16.01  480.16   16.33  516.24   16.93  502.36   16.70
  480.71   16.34  475.71   16.25  446.85   15.75  455.18   15.90  465.17   16.07
  469.05   16.14  464.61   16.06  462.39   16.02  456.84   15.92  471.27   16.17
  494.03   16.56  439.08   15.61  484.60   16.40  475.71   16.25  464.61   16.06
  485.71   16.42  458.51   15.95  485.15   16.41  454.07   15.88  462.39   16.02
  451.29   15.83  470.72   16.16  455.18   15.90  429.09   15.43  472.38   16.19
  487.37   16.45  446.85   15.75  450.18   15.81  440.19   15.63  464.61   16.06
  457.40   15.93  469.05   16.14  484.04   16.39  461.28   16.00  474.60   16.23
  469.45   13.20  470.94   13.23  471.68   13.24  445.68   12.87  471.68   13.24
  476.59   16.25  457.19   15.92  477.69   16.27  462.18   16.00  448.88   15.77
  456.08   15.90  485.45   16.40  470.49   16.15  437.79   15.58  468.27   16.11
  452.76   15.84  463.29   16.02  435.58   15.54  504.29   16.72  438.90   15.60
  463.29   16.02  467.72   16.10  464.95   16.05  467.17   16.09  456.08   15.90
  456.64   15.91  459.96   15.97  472.15   16.18  474.92   16.22  418.95   15.24
  483.79   16.37  461.07   15.98  445.55   15.71  471.04   16.16  454.42   15.87
  459.41   15.96  445.55   15.71  476.03   16.24  448.88   15.77  432.25   15.48
  451.09   15.81  471.60   16.17  468.83   16.12  448.32   15.76  460.52   15.98
  465.50   16.06  451.65   15.82  445.00   15.70  438.35   15.59  444.44   15.69
  425.60   15.36  462.73   16.01  465.50   16.06  481.02   16.33  457.74   15.93
  448.76   12.88  473.52   13.23  438.78   12.74  444.82   15.76  469.37   16.19
  439.79   15.67  457.10   15.97  466.02   16.13  458.77   16.00  462.12   16.06
  482.21   16.41  473.84   16.26  453.19   15.90  428.07   15.46  457.10   15.97
  481.65   16.40  481.09   16.39  478.30   16.34  472.72   16.24  464.91   16.11
  511.23   16.89  500.07   16.71  516.26   16.97  548.63   17.50  550.86   17.53
  580.44   18.00  628.44   18.73  668.06   19.31  687.60   19.59  781.36   20.88
  829.91   21.52 1016.32   23.82 1151.39   25.35 1419.84   28.15 1678.25   30.60
 1932.19   32.84 2177.20   34.86 2300.54   35.83 2146.50   34.61 1884.19   32.43
 1533.14   29.25 1177.62   25.64  890.75   22.30  667.50   19.30  533.56   17.26
  485.56   16.46  490.02   16.54  450.40   15.85  473.84   16.26  457.65   15.98
  464.35   16.10  459.33   16.01  459.89   16.02  463.23   16.08  473.24   13.51
  460.13   13.32  453.57   13.23  449.33   13.16  424.27   15.79  418.98   15.69
  422.51   15.76  464.23   16.52  454.83   16.35  478.92   16.78  481.27   16.82
  504.19   17.21  512.41   17.35  525.34   17.57  545.32   17.90  628.76   19.22
  604.08   18.84  741.00   20.87  810.93   21.83  960.19   23.75 1162.33   26.13
 1415.01   28.84 1713.53   31.73 1949.76   33.85 2218.30   36.10 2240.05   36.28
 2157.78   35.61 1826.94   32.77 1459.67   29.29 1100.63   25.43  817.39   21.92
  605.85   18.87  511.24   17.33  475.98   16.72  440.72   16.09  444.25   16.16
  448.36   16.23  448.36   16.23  468.93   16.60  414.87   15.61  446.01   16.19
  453.65   16.33  430.15   15.90  444.84   16.17  439.55   16.07  434.26   15.97
  455.41   16.36  457.18   16.39  447.77   16.22  452.48   16.31  459.53   16.43
  464.82   16.53  434.85   15.99  472.08   13.68  450.26   13.36  458.20   13.48
  458.59   13.49  437.57   13.18  447.49   13.32  453.70   16.74  432.10   16.33
  441.36   16.51  430.25   16.30  446.91   16.61  451.23   16.69  449.38   16.66
  467.28   16.98  441.98   16.52  470.37   17.04  462.35   16.89  487.65   17.35
  495.68   17.49  537.04   18.21  526.54   18.03  540.12   18.26  600.00   19.25
  690.74   20.65  749.38   21.51  808.64   22.34  910.49   23.71  924.07   23.88
  871.60   23.20  779.01   21.93  706.17   20.88  640.12   19.88  542.59   18.30
  490.12   17.39  413.58   15.98  429.01   16.27  455.56   16.77  448.77   16.64
  450.62   16.68  439.51   16.47  426.54   16.23  453.09   16.72  481.48   17.24
  430.25   16.30  425.31   16.20  461.11   16.87  452.47   16.71  472.84   17.08
  414.81   16.00  444.44   16.56  446.30   16.60  448.77   16.64  446.91   16.61
  451.85   16.70  439.64   13.65  448.54   13.78  426.51   13.44  419.31   13.33
  448.12   13.78  453.20   13.85  426.92   16.54  440.38   16.80  435.26   16.70
  423.08   16.47  439.74   16.79  449.36   16.97  439.10   16.78  435.26   16.70
  432.05   16.64  452.56   17.03  416.03   16.33  452.56   17.03  407.69   16.17
  462.18   17.21  420.51   16.42  428.85   16.58  419.23   16.39  426.92   16.54
  412.18   16.25  446.15   16.91  420.51   16.42  457.05   17.12  438.46   16.76
  448.72   16.96  428.21   16.57  440.38   16.80  424.36   16.49  424.36   16.49
  420.51   16.42  412.82   16.27  428.21   16.57  435.90   16.72  423.08   16.47
  424.36   16.49  432.05   16.64  460.90   17.19  422.44   16.46  428.21   16.57
  451.28   17.01  457.69   17.13  441.03   16.81  431.41   16.63  436.54   16.73
  444.23   16.87  431.41   16.63  448.08   16.95  442.95   16.85  445.51   16.90
  469.23   17.34  425.87   13.26  419.27   13.15  433.72   13.38  419.27   13.15
  438.21   16.53  423.25   16.24  439.46   16.55  436.34   16.49  433.85   16.44
  441.95   16.60  423.87   16.25  436.34   16.49  436.34   16.49  423.25   16.24
  426.99   16.31  404.55   15.88  425.74   16.29  430.11   16.37  441.33   16.59
  438.21   16.53  455.04   16.84  443.20   16.62  430.73   16.39  433.85   16.44
  436.34   16.49  455.04   16.84  399.56   15.78  427.61   16.33  420.76   16.19
  448.18   16.71  402.68   15.84  423.87   16.25  417.64   16.13  455.66   16.85
  440.08   16.56  440.70   16.57  426.99   16.31  419.51   16.17  405.17   15.89
  405.17   15.89  405.17   15.89  403.93   15.87  419.51   16.17  428.86   16.35
  438.21   16.53  410.16   15.99  420.13   16.18  416.39   16.11  417.02   16.12
  419.51   16.17  418.26   16.15  418.26   16.15  437.59   16.52  416.08   12.98
  449.31   13.49  432.70   13.24  440.80   13.36  432.70   13.24  419.74   15.59
  463.16   16.38  435.95   15.89  423.80   15.66  411.64   15.44  409.32   15.39
  445.22   16.05  429.01   15.76  420.90   15.61  404.69   15.31  416.27   15.52
  421.48   15.62  448.69   16.12  411.06   15.43  429.58   15.77  449.85   16.14
  416.85   15.53  420.90   15.61  424.37   15.67  405.85   15.33  412.79   15.46
  436.53   15.90  442.32   16.00  416.27   15.52  433.06   15.83  451.58   16.17
  380.95   14.85  430.16   15.78  402.95   15.27  415.69   15.51  404.11   15.30
  433.06   15.83  425.53   15.70  407.58   15.36  442.32   16.00  445.80   16.07
  446.95   16.09  447.53   16.10  409.32   15.39  448.11   16.11  451.01   16.16
  429.01   15.76  438.27   15.93  419.74   15.59  436.53   15.90  418.58   15.57
  449.27   16.13  401.22   15.24  430.74   15.79  415.11   15.50  435.86   13.04
  414.40   12.72  389.04   12.32  412.84   12.69  442.88   13.15  434.25   15.98
  406.59   15.47  424.83   15.81  429.54   15.90  423.65   15.79  430.13   15.91
  436.60   16.03  421.30   15.74  423.65   15.79  416.00   15.65  426.60   15.84
  437.19   16.04  431.30   15.93  424.24   15.80  404.82   15.43  425.42   15.82
  430.13   15.91  437.78   16.05  420.71   15.73  438.95   16.07  424.24   15.80
  411.30   15.56  425.42   15.82  440.72   16.10  456.60   16.39  456.02   16.38
  466.61   16.57  525.45   17.58  604.30   18.86  713.74   20.49  910.27   23.14
 1052.66   24.89 1239.78   27.01 1377.46   28.47 1387.47   28.57 1282.14   27.47
 1089.73   25.32  862.61   22.53  718.45   20.56  556.63   18.10  481.32   16.83
  456.60   16.39  422.48   15.77  420.71   15.73  431.30   15.93  436.60   16.03
  424.83   15.81  408.36   15.50  454.93   13.29  411.03   12.64  406.76   12.57
  428.13   12.90  443.28   13.12  409.94   15.48  402.92   15.35  408.19   15.45
  432.75   15.91  419.88   15.67  412.87   15.54  430.41   15.87  421.05   15.69
  433.33   15.92  443.86   16.11  418.71   15.65  411.11   15.51  422.22   15.71
  431.58   15.89  426.32   15.79  419.30   15.66  441.52   16.07  411.70   15.52
  415.79   15.59  430.99   15.88  440.35   16.05  425.15   15.77  426.32   15.79
  430.41   15.87  425.73   15.78  422.22   15.71  402.92   15.35  395.32   15.20
  436.26   15.97  419.88   15.67  412.87   15.54  460.82   16.42  451.46   16.25
  417.54   15.63  471.93   16.61  480.70   16.77  476.02   16.68  532.75   17.65
  547.95   17.90  627.49   19.16  665.50   19.73  726.90   20.62  814.62   21.83
  932.16   23.35 1089.47   25.24 1256.73   27.11 1645.03   31.02 1928.07   33.58
 2233.92   36.14 2316.82   30.09 2283.59   29.88 2011.14   28.04 1634.32   25.28
 1178.54   21.46  886.54   18.62  730.81   20.60  553.77   17.93  491.08   16.88
  469.60   16.51  446.96   16.11  459.15   16.33  448.12   16.13  434.19   15.88
  471.92   16.55  451.02   16.18  435.93   15.91  434.19   15.88  426.06   15.73
  431.29   15.82  438.83   15.96  472.50   16.56  484.11   16.76  516.62   17.32
  560.15   18.03  664.05   19.63  841.68   22.10 1182.99   26.20 1683.94   31.26
 2653.90   39.25 4307.65   50.00 6386.30   60.89 9318.82   73.5512208.97   84.18
14651.57   92.2215373.68   94.4714588.88   92.0211974.46   83.37 9006.53   72.30
 5859.24   58.32 3391.09   44.37 1819.18   32.50 1001.31   24.11  655.93   19.51
  507.33   17.16  482.37   16.73  516.04   17.31  510.81   17.22  469.60   16.51
  547.38   17.83  579.89   18.35  700.62   20.17  862.57   22.38 1084.75   21.16
 1432.02   24.32 1718.59   26.64 1890.78   27.94 2094.35   29.41 2005.57   28.78
 1781.87   33.94 1371.47   29.77 1078.69   26.40  795.61   22.68  632.74   20.22
  513.17   18.21  488.61   17.77  445.95   16.98  420.10   16.48  437.55   16.82
  443.37   16.93  451.12   17.08  398.77   16.05  444.66   16.95  410.41   16.29
  402.00   16.12  424.62   16.57  433.67   16.74  424.62   16.57  440.78   16.88
  465.34   17.34  500.89   17.99  531.91   18.54  551.95   18.89  564.87   19.11
  568.10   19.16  542.25   18.72  537.08   18.63  539.02   18.66  497.66   17.93
  487.96   17.76  509.94   18.15  467.28   17.38  486.02   17.72  406.53   16.21
  427.86   16.63  436.26   16.79  434.32   16.75  396.83   16.01  413.64   16.35
  426.56   16.60  427.86   16.63  413.64   16.35  390.37   15.88  389.72   15.87
  411.70   16.31  440.78   16.88  393.60   15.95  396.83   16.01  406.45   13.05
  410.22   13.11  416.09   13.20  380.05   12.62  385.50   12.71  382.90   15.78
  387.45   15.87  391.35   15.95  394.60   16.02  409.56   16.32  410.21   16.33
  405.01   16.23  429.71   16.71  410.21   16.33  373.15   15.58  367.95   15.47
  395.90   16.04  414.11   16.41  403.71   16.20  397.85   16.08  392.00   15.96
  417.36   16.47  405.01   16.23  390.05   15.92  406.31   16.25  405.66   16.24
  392.65   15.98  397.85   16.08  406.31   16.25  405.01   16.23  403.06   16.19
  375.75   15.63  425.81   16.64  389.40   15.91  392.00   15.96  430.36   16.73
  440.11   16.91  393.95   16.00  449.21   17.09  400.46   16.13  403.71   16.20
  431.66   16.75  373.15   15.58  415.41   16.43  410.21   16.33  401.76   16.16
  382.25   15.76  410.86   16.34  384.85   15.82  403.71   16.20  393.95   16.00
  418.01   16.48  412.81   16.38  412.81   16.38  372.10   12.61  409.27   13.22
  425.50   13.48  419.52   13.39  402.01   15.65  400.18   15.61  396.53   15.54
  379.47   15.20  404.45   15.70  372.16   15.06  406.27   15.73  374.60   15.11
  380.69   15.23  392.87   15.47  388.61   15.39  402.62   15.66  422.11   16.03
  409.32   15.79  435.51   16.29  391.66   15.45  412.97   15.86  381.30   15.24
  397.14   15.55  370.95   15.03  411.76   15.84  370.34   15.02  378.86   15.19
  386.78   15.35  405.06   15.71  396.53   15.54  393.48   15.48  395.31   15.52
  375.82   15.13  403.23   15.67  423.33   16.06  401.40   15.64  436.12   16.30
  451.35   16.58  542.71   18.18  591.44   18.98  671.23   20.22  729.71   21.08
  801.58   22.10  877.11   23.11  824.73   22.41  744.94   21.30  675.50   20.28
  566.47   18.58  466.58   16.86  453.17   16.61  416.02   15.92  428.20   16.15
  400.79   15.62  395.92   15.53  402.84   12.69  420.84   12.98  407.24   12.76
  404.84   12.73  421.64   12.99  392.65   15.38  411.92   15.75  454.08   16.54
  484.79   17.09  591.39   18.87  731.11   20.98  926.23   23.62 1244.20   27.37
 1644.69   31.47 1892.80   33.76 2216.20   36.53 2237.28   36.71 2124.06   35.77
 1735.62   32.33 1335.74   28.36  985.25   24.36  741.34   21.13  565.49   18.45
  477.57   16.96  449.86   16.46  405.90   15.63  383.62   15.20  395.06   15.42
  423.37   15.97  389.64   15.32  420.96   15.92  413.73   15.78  419.15   15.89
  429.99   16.09  451.07   16.48  414.33   15.80  399.28   15.51  402.89   15.58
  395.06   15.42  386.03   15.25  413.13   15.77  410.72   15.73  421.56   15.93
  370.37   14.93  420.36   15.91  395.06   15.42  413.73   15.78  409.52   15.70
  416.14   15.83  411.32   15.74  407.11   15.66  388.44   15.29  386.63   15.26
  407.11   15.66  394.83   12.72  392.37   12.68  399.75   12.80  420.66   13.13
  396.47   12.75  402.08   15.67  400.86   15.65  403.91   15.71  406.36   15.76
  407.58   15.78  417.35   15.97  443.02   16.45  470.52   16.96  501.07   17.50
  548.73   18.31  559.12   18.48  653.83   19.99  704.55   20.75  848.76   22.77
 1100.52   25.93 1528.26   30.56 2080.66   35.66 2782.16   41.23 3426.21   45.76
 3692.64   47.50 3761.69   47.94 3403.61   45.60 2798.66   41.35 2051.33   35.40
 1519.10   30.47 1019.25   24.96  727.77   21.09  548.73   18.31  468.07   16.91
  445.46   16.50  414.91   15.92  410.63   15.84  370.91   15.05  402.69   15.69
  427.13   16.16  410.63   15.84  391.08   15.46  378.86   15.22  403.30   15.70
  398.41   15.60  381.91   15.28  403.30   15.70  393.52   15.51  393.52   15.51
  400.24   15.64  389.86   15.43  374.58   15.13  361.75   14.87  411.24   15.85
  412.84   13.02  389.04   12.64  400.12   12.81  427.62   13.25  389.45   12.64
  397.78   15.87  445.92   16.81  417.42   16.26  502.30   17.84  576.41   19.11
  737.29   21.61  905.78   23.95 1193.98   27.50 1464.45   30.46 1675.38   32.58
 1780.52   33.58 1686.78   32.69 1491.69   30.74 1153.44   27.03  937.45   24.37
  708.16   21.18  566.27   18.94  524.47   18.23  418.69   16.28  435.79   16.61
  411.08   16.14  400.95   15.94  387.65   15.67  388.28   15.68  399.05   15.90
  398.42   15.89  398.42   15.89  437.05   16.64  428.82   16.48  398.42   15.89
  475.06   17.35  530.17   18.33  547.27   18.62  557.40   18.79  591.61   19.36
  543.47   18.55  558.04   18.80  540.30   18.50  490.89   17.63  454.16   16.96
  433.25   16.57  430.72   16.52  393.98   15.80  387.65   15.67  374.35   15.40
  405.38   16.02  392.72   15.77  382.58   15.57  421.85   16.35  368.67   12.62
  397.19   13.10  388.98   12.97  383.36   12.87  385.95   12.92  409.05   16.32
  405.80   16.26  391.47   15.97  390.82   15.95  401.24   16.17  397.33   16.09
  403.84   16.22  358.90   15.29  372.58   15.58  375.83   15.65  383.65   15.81
  368.67   15.50  402.54   16.19  392.77   15.99  397.98   16.10  393.42   16.01
  416.87   16.48  420.13   16.54  405.15   16.24  416.22   16.47  381.70   15.77
  385.60   15.85  389.51   15.93  418.17   16.50  414.92   16.44  392.77   15.99
  392.77   15.99  416.87   16.48  429.90   16.73  399.28   16.13  432.50   16.78
  484.61   17.77  473.54   17.56  522.39   18.45  568.64   19.25  627.26   20.21
  614.23   20.00  631.17   20.28  584.27   19.51  558.22   19.07  515.23   18.32
  508.06   18.19  478.10   17.65  431.20   16.76  382.35   15.78  403.19   16.21
  394.07   16.02  381.05   15.75  388.21   15.90  397.65   13.03  386.56   12.84
  395.95   13.00  410.88   13.24  370.77   12.58  413.35   16.36  390.02   15.90
  373.18   15.55  419.83   16.49  382.90   15.75  402.33   16.15  386.78   15.83
  410.75   16.31  380.95   15.71  418.53   16.47  398.45   16.07  373.18   15.55
  388.08   15.86  408.16   16.26  410.75   16.31  395.85   16.01  420.47   16.51
  426.30   16.62  396.50   16.03  421.12   16.52  481.37   17.66  499.51   17.99
  613.54   19.94  678.33   20.96  723.03   21.64  805.96   22.85  776.81   22.43
  796.24   22.71  745.06   21.97  638.16   20.33  663.43   20.73  544.22   18.78
  550.70   18.89  520.89   18.37  522.84   18.40  497.57   17.95  448.98   17.06
  428.90   16.67  460.64   17.28  441.21   16.91  437.97   16.84  479.43   17.62
  474.25   17.53  524.13   18.43  607.71   19.84  712.02   21.48  849.37   23.46
  880.47   23.88  943.96   24.73  962.50   20.03 1011.67   20.53 1061.67   21.03
 1252.92   22.85 1465.83   24.71 1934.53   34.09 2513.51   38.85 3099.10   43.14
 3529.13   46.04 3758.56   47.51 3596.40   46.48 3129.73   43.36 2617.42   39.65
 1968.17   34.38 1442.04   29.43 1058.26   25.21  774.17   21.56  572.97   18.55
  517.72   17.63  416.82   15.82  432.43   16.12  415.02   15.79  415.62   15.80
  403.60   15.57  393.39   15.37  409.01   15.67  395.80   15.42  397.00   15.44
  379.58   15.10  381.38   15.13  402.40   15.55  424.02   15.96  397.60   15.45
  392.19   15.35  400.00   15.50  383.18   15.17  428.83   16.05  410.81   15.71
  413.21   15.75  442.64   16.30  452.85   16.49  455.86   16.55  486.49   17.09
  571.17   18.52  638.44   19.58  690.69   20.37  747.75   21.19  753.15   21.27
  725.53   20.87  682.88   20.25  638.44   19.58  545.95   18.11  514.11   17.57
  466.99   13.75  450.79   13.51  434.99   13.27  388.01   12.54  400.16   12.73
  399.76   12.72  405.30   15.62  407.71   15.67  392.05   15.37  365.55   14.84
  397.47   15.47  398.07   15.48  389.04   15.31  345.68   14.43  402.29   15.57
  421.56   15.93  411.32   15.74  454.68   16.55  480.58   17.01  547.43   18.16
  655.22   19.86  769.65   21.53  976.81   24.25 1205.06   26.94 1357.42   28.59
 1489.31   29.95 1510.39   30.16 1444.75   29.50 1261.67   27.56 1019.57   24.78
  857.57   22.73  699.19   20.52  590.18   18.85  523.34   17.75  447.46   16.42
  419.75   15.90  422.16   15.94  392.65   15.38  396.87   15.46  383.02   15.19
  367.96   14.89  417.95   15.87  416.74   15.84  394.46   15.41  386.63   15.26
  394.46   15.41  390.24   15.33  408.91   15.69  375.19   15.03  402.29   15.57
  381.81   15.16  387.83   15.28  372.18   14.97  402.29   15.57  388.57   12.57
  403.21   12.81  401.18   12.78  405.66   12.85  409.72   12.91  446.34   13.48
  421.55   16.23  444.03   16.65  443.40   16.64  419.05   16.18  441.53   16.61
  434.04   16.46  397.81   15.76  400.94   15.82  400.94   15.82  390.94   15.63
  400.94   15.82  399.06   15.79  384.07   15.49  399.06   15.79  372.83   15.26
  386.57   15.54  370.96   15.22  379.70   15.40  370.34   15.21  382.20   15.45
  374.08   15.28  401.56   15.84  389.70   15.60  375.33   15.31  402.19   15.85
  372.21   15.25  389.07   15.59  354.72   14.88  378.45   15.37  366.59   15.13
  415.30   16.10  394.07   15.69  413.43   16.07  372.83   15.26  398.44   15.77
  429.04   16.37  417.80   16.15  433.41   16.45  455.27   16.86  478.38   17.28
  497.74   17.63  526.46   18.13  590.79   19.21  655.74   20.24  758.78   21.77
  862.45   23.21 1012.96   25.15 1165.34   26.98 1384.80   24.27 1873.47   28.23
 2267.30   31.05 2857.63   34.86 3276.56   37.33 3398.29   46.87 3409.27   46.94
 3103.57   44.79 2660.85   41.47 2189.05   37.61 1747.62   33.61 1202.78   27.88
  984.33   25.22  728.39   21.70  577.80   19.32  524.16   18.41  463.40   17.31
  427.86   16.63  414.28   16.36  391.66   15.91  409.76   16.27  385.85   15.79
  396.19   16.00  399.42   16.07  394.89   15.98  379.38   15.66  444.01   16.94
  384.55   15.77  387.78   15.83  423.98   16.55  407.17   16.22  397.48   16.03
  384.55   15.77  403.30   16.14  370.33   15.47  404.59   16.17  370.98   15.48
  391.66   15.91  415.58   16.39  380.03   15.67  387.14   15.82  353.53   15.12
  385.85   15.79  369.69   15.46  387.78   15.83  400.71   16.09  396.83   16.01
  379.38   15.66  418.16   16.44  423.33   16.54  422.04   16.52  418.16   16.44
  407.82   16.24  413.64   16.35  453.12   14.26  445.04   14.13  461.19   14.38
  505.61   15.06  573.80   16.04  634.19   21.05  742.45   22.77  930.33   25.49
 1133.58   28.14 1419.94   31.49 1683.25   34.29 1883.71   36.27 1967.52   37.07
 1876.03   36.20 1703.51   34.49 1490.48   32.26 1302.60   30.16 1096.56   27.67
  907.28   25.17  748.73   22.87  717.30   22.38  642.57   21.18  539.20   19.41
  502.88   18.74  513.36   18.94  477.04   18.25  470.75   18.13  437.93   17.49
  399.51   16.70  389.73   16.50  374.37   16.17  396.72   16.65  388.34   16.47
  396.02   16.63  378.56   16.26  396.02   16.63  419.07   17.11  411.38   16.95
  389.73   16.50  410.69   16.94  416.97   17.07  398.11   16.68  423.96   17.21
  400.91   16.73  400.91   16.73  408.59   16.89  412.78   16.98  420.46   17.14
  421.86   17.17  439.32   17.52  463.07   17.98  468.66   18.09  501.48   18.72
  530.12   19.24  582.50   20.17  631.49   16.66  744.50   18.09  878.19   19.65
 1114.34   22.14 1298.56   29.19 1648.29   32.89 2042.65   36.61 2240.16   38.34
 2433.07   39.96 2388.45   39.59 2337.93   39.17 2030.84   36.50 1740.81   33.80
 1427.82   30.61 1161.42   27.61  895.01   24.23  781.50   22.64  629.92   20.33
  575.46   19.43  559.71   19.16  532.15   18.69  572.83   19.39  671.26   20.99
  753.28   22.23  948.16   24.94 1254.59   28.69 1582.02   32.22 2053.15   36.70
 2612.20   41.40 3091.21   45.04 3531.50   48.14 3538.06   48.18 3514.44   48.02
 3187.66   45.73 2788.06   42.77 2304.46   38.89 1938.98   35.67 1584.65   32.25
 1386.48   30.16 1232.28   28.44 1061.02   26.39 1042.65   26.16 1026.90   25.96
 1034.12   26.05  965.88   25.17  882.55   24.06  857.61   23.72  795.28   22.84
  717.85   21.70  585.30   19.60  533.46   18.71  538.06   18.79  505.91   18.22
  471.52   14.24  449.60   13.90  434.13   13.66  422.52   13.48  429.83   13.59
  404.32   15.68  438.36   16.33  462.68   16.77  489.44   17.25  569.69   18.61
  641.43   19.75  710.14   20.78  730.20   21.07  848.15   22.71  817.15   22.29
  797.08   22.01  787.35   21.88  704.06   20.69  640.83   19.74  565.44   18.54
  561.79   18.48  495.52   17.36  437.15   16.30  465.72   16.83  408.57   15.76
  395.20   15.50  347.17   14.53  390.33   15.41  390.94   15.42  371.49   15.03
  383.64   15.27  364.19   14.88  356.29   14.72  398.24   15.56  376.35   15.13
  390.94   15.42  367.23   14.94  409.18   15.77  392.16   15.44  350.81   14.60
  378.78   15.18  375.13   15.10  389.12   15.38  387.90   15.36  371.49   15.03
  362.37   14.84  362.97   14.86  392.16   15.44  397.63   15.55  387.29   15.35
  367.23   14.94  369.05   14.98  403.10   15.66  396.41   15.52  400.61   12.73
  408.30   12.85  388.47   12.54  402.63   12.76  407.89   12.85  393.32   12.62
  404.54   15.76  394.72   15.57  368.94   15.05  405.77   15.78  387.97   15.43
  393.49   15.54  401.47   15.70  382.44   15.32  406.38   15.79  396.56   15.60
  433.39   16.31  411.30   15.89  430.33   16.25  497.24   17.47  550.64   18.39
  598.53   19.17  672.19   20.31  775.32   21.82  844.69   22.77  845.92   22.79
  938.00   24.00  882.75   23.28  845.30   22.78  801.10   22.18  710.87   20.89
  632.29   19.70  575.81   18.80  540.82   18.22  500.31   17.52  447.51   16.57
  455.49   16.72  438.31   16.40  422.96   16.11  454.27   16.70  464.70   16.89
  486.80   17.29  505.22   17.61  535.91   18.14  548.19   18.34  538.37   18.18
  586.25   18.97  533.46   18.10  546.35   18.31  491.10   17.36  441.99   16.47
  404.54   15.76  414.36   15.95  403.31   15.73  403.93   15.75  404.19   12.76
  394.93   12.61  395.33   12.62  381.64   12.40  381.80   15.07  395.48   15.34
  390.72   15.24  384.18   15.12  372.88   14.89  382.99   15.09  381.80   15.07
  341.96   14.26  374.67   14.93  378.83   15.01  358.01   14.59  337.79   14.17
  393.70   15.30  394.29   15.31  393.10   15.29  391.91   15.27  384.78   15.13
  368.12   14.80  389.53   15.22  375.26   14.94  420.46   15.81  378.83   15.01
  383.59   15.10  367.53   14.78  362.77   14.69  384.18   15.12  385.37   15.14
  374.67   14.93  397.86   15.38  391.32   15.26  369.91   14.83  400.83   15.44
  365.15   14.74  386.56   15.16  357.42   14.58  387.15   15.17  376.45   14.96
  406.18   15.54  404.40   15.51  415.11   15.71  399.64   15.42  429.38   15.98
  441.27   16.20  489.44   17.06  493.61   17.13  520.37   17.59  542.37   17.96
  616.12   19.14  665.48   19.89  745.17   21.05  805.77   18.09  914.61   19.27
 1017.36   20.33 1122.96   21.36 1181.11   26.87 1290.54   28.09 1318.05   28.39
 1317.44   28.38 1270.37   27.87 1163.99   26.68 1072.90   25.61  892.56   23.36
  824.70   22.45  726.88   21.08  647.41   19.89  578.94   18.81  482.96   17.18
  442.61   16.45  463.40   16.83  408.99   15.81  418.77   16.00  380.87   15.26
  381.48   15.27  386.98   15.38  377.81   15.20  372.31   15.09  390.65   15.45
  397.37   15.59  401.65   15.67  380.87   15.26  403.48   15.71  410.82   15.85
  413.27   15.89  469.51   16.94  449.34   16.57  486.63   17.25  497.63   17.44
  530.03   18.00  518.42   17.80  552.65   18.38  558.77   18.48  528.81   17.98
  498.24   17.45  503.74   17.55  514.14   17.73  479.90   17.13  458.51   16.74
  440.17   16.40  415.10   15.93  404.71   15.73  407.76   15.79  372.31   15.09
  404.71   15.73  411.07   12.91  424.45   13.12  442.28   13.39  428.90   13.19
  462.96   13.70  485.66   14.03  514.35   17.86  560.88   18.65  609.28   19.44
  626.65   19.72  626.03   19.71  606.79   19.40  653.33   20.13  593.14   19.18
  602.45   19.33  519.31   17.95  543.51   18.36  477.74   17.22  457.27   16.84
  457.27   16.84  457.27   16.84  409.49   15.94  396.46   15.68  400.81   15.77
  409.49   15.94  380.33   15.36  372.27   15.20  406.39   15.88  361.10   14.97
  389.02   15.54  406.39   15.88  387.78   15.51  392.12   15.60  380.95   15.37
  387.16   15.50  407.01   15.89  398.95   15.73  359.86   14.94  409.49   15.94
  407.63   15.90  397.08   15.70  405.77   15.87  425.00   16.24  444.86   16.61
  459.75   16.89  464.71   16.98  505.66   17.71  570.81   18.82  563.98   18.71
  566.47   18.75  639.06   19.91  667.60   20.35  697.38   20.80  769.35   21.85
  794.34   18.04  815.66   18.28  879.60   18.99  880.83   19.00  918.13   19.40
  877.55   18.97  816.15   22.18  778.18   21.66  740.81   21.13  638.94   19.62
  607.59   19.14  568.41   18.51  534.06   17.94  528.63   17.85  550.93   18.22
  564.20   18.44  564.20   18.44  600.96   19.03  668.47   20.07  722.12   20.86
  801.08   21.97  802.29   21.99  866.18   22.85  840.27   22.51  789.63   21.82
  799.28   21.95  729.36   20.97  698.01   20.51  621.46   19.35  582.88   18.74
  520.80   17.72  500.90   17.38  478.60   16.98  453.89   16.54  450.27   16.47
  421.34   15.94  421.94   15.95  453.29   16.53  471.37   16.86  441.23   16.31
  495.48   17.28  460.52   16.66  456.90   16.60  467.15   16.78  461.72   16.68
  494.27   17.26  507.53   17.49  487.04   17.13  564.20   18.44  546.71   18.15
  591.32   18.88  660.64   19.96  757.08   21.36  798.18   17.78  901.96   18.90
  972.47   19.63 1197.46   21.78 1321.45   22.88 1483.46   24.24 1630.35   31.03
 1676.41   31.46 1746.68   32.12 1700.03   31.68 1576.03   30.51 1503.40   29.80
 1283.14   27.53 1191.02   26.52 1045.17   24.84  930.62   23.44  809.57   21.86
  724.53   20.68  614.70   19.05  522.59   17.57  506.64   17.30  461.77   16.51
  439.33   16.11  409.21   15.54  401.54   15.40  383.23   15.04  382.64   15.03
  402.13   15.41  366.11   14.70  390.32   15.18  377.33   14.93  396.22   15.30
  385.59   15.09  385.00   15.08  380.28   14.99  363.74   14.66  379.10   14.96
  372.60   14.83  411.57   15.59  386.77   15.11  385.59   15.09  385.00   15.08
  380.87   15.00  382.05   15.02  425.16   15.84  377.33   14.93  389.73   15.17
  402.72   15.42  385.59   15.09  386.18   15.10  366.11   14.70  396.81   15.31
  380.87   15.00  405.67   15.48  368.47   14.75  404.77   12.63  387.03   12.35
  380.33   12.24  380.73   12.25  400.04   12.56  373.85   14.79  370.92   14.73
  351.03   14.33  394.32   15.19  368.58   14.68  373.85   14.79  389.06   15.09
  393.74   15.18  384.96   15.01  384.38   15.00  402.52   15.35  380.28   14.92
  380.28   14.92  398.42   15.27  394.91   15.20  403.69   15.37  424.75   15.76
  433.52   15.93  467.46   16.54  454.00   16.30  486.76   16.88  475.65   16.68
  563.99   18.16  623.67   19.10  661.69   19.68  747.70   20.92  836.04   22.12
  920.87   23.21 1049.58   24.78 1187.07   26.35 1235.04   26.88 1452.68   29.15
 1458.53   29.21 1540.44   30.02 1615.33   30.74 1594.85   30.55 1501.24   29.64
 1349.71   28.10 1330.41   27.90 1221.59   26.73 1077.08   25.10  996.34   24.14
  886.94   22.78  758.81   21.07  727.80   20.64  646.48   19.45  617.81   19.01
  599.68   18.73  610.98   15.59  592.28   15.35  602.63   15.48  619.33   15.70
  633.25   15.87  689.72   20.45  657.57   19.97  691.54   20.48  673.95   20.22
  643.01   19.75  658.17   19.98  647.26   19.81  613.28   19.29  590.23   18.92
  536.25   18.04  559.30   18.42  479.83   17.06  465.27   16.80  462.24   16.75
  442.83   16.39  431.30   16.18  418.56   15.93  379.13   15.17  407.04   15.71
  395.51   15.49  408.86   15.75  412.50   15.82  388.84   15.36  397.94   15.54
  408.25   15.74  389.44   15.37  371.85   15.02  390.05   15.38  411.28   15.80
  379.74   15.18  391.87   15.42  399.76   15.57  395.51   15.49  405.82   15.69
  416.14   15.89  419.78   15.96  434.33   16.23  454.35   16.60  477.40   17.02
  499.85   17.41  524.11   17.83  562.94   18.48  590.84   18.93  691.54   20.48
  692.14   20.49  794.66   21.96  888.08   23.21 1029.42   24.99 1136.79   26.26
 1196.24   26.94 1276.62   22.66 1294.72   22.82 1310.81   22.96 1268.98   22.59
 1301.16   22.88 1174.43   26.74 1145.21   26.41 1020.40   24.92  932.12   23.82
  840.79   22.63  762.25   21.54  701.98   20.67  653.88   19.95  600.91   19.13
  532.72   18.01  520.55   17.80  450.53   16.56  460.27   16.74  424.96   16.09
  390.26   15.41  417.66   15.95  401.22   15.63  407.91   15.76  391.48   15.44
  404.87   15.70  415.22   15.90  406.09   15.72  415.22   15.90  427.40   16.13
  443.23   16.43  418.87   15.97  460.27   16.74  499.85   17.44  502.89   17.50
  532.12   18.00  588.74   18.93  583.26   18.84  624.05   19.49  671.54   20.22
  687.37   20.46  689.19   20.48  659.97   20.05  737.29   21.19  680.67   20.36
  692.24   20.53  684.32   20.41  673.97   20.26  652.05   19.92  724.51   21.00
  681.28   20.37  746.42   21.32  729.98   21.08  818.87   22.33  912.02   23.56
  944.51   19.35  968.69   19.59 1026.16   20.17 1071.74   20.61 1161.65   26.00
 1145.35   25.82 1146.52   25.83 1173.87   26.14 1124.98   25.59 1101.70   25.32
 1051.65   24.74  989.96   24.00  971.34   23.78  881.13   22.65  804.89   21.64
  755.42   20.97  689.07   20.03  632.04   19.18  611.67   18.87  569.18   18.20
  559.29   18.04  513.89   17.29  464.43   16.44  498.18   17.03  434.74   15.91
  434.74   15.91  437.07   15.95  435.91   15.93  409.72   15.44  381.78   14.91
  410.88   15.46  381.20   14.89  354.43   14.36  398.66   15.23  412.63   15.50
  410.30   15.45  419.03   15.62  421.94   15.67  426.60   15.76  421.94   15.67
  407.97   15.41  418.45   15.61  465.59   16.46  470.25   16.54  487.12   16.84
  508.66   17.21  516.80   17.34  540.67   17.74  538.92   17.71  598.87   18.67
  584.90   18.45  614.58   18.91  561.04   18.07  631.46   19.17  620.41   15.73
  603.67   15.51  580.94   15.22  616.83   15.68  574.56   15.14  569.38   18.46
  566.98   18.42  528.06   17.78  555.61   18.24  599.31   18.94  583.15   18.69
  622.06   19.30  652.00   19.76  662.18   19.91  702.29   20.51  738.81   21.03
  796.29   21.83  890.29   23.09  940.58   23.73 1056.13   25.15 1220.78   27.04
 1393.80   28.89 1632.69   31.27 1781.77   32.66 1926.66   33.96 2228.41   36.53
 2356.53   37.56 2425.98   38.11 2522.38   38.86 2493.04   38.63 2499.03   38.68
 2435.56   38.19 2373.30   37.70 2140.40   35.80 2023.05   34.80 1808.11   32.90
 1663.82   31.56 1472.23   29.69 1297.41   27.87 1121.39   25.91  987.28   24.31
  898.67   23.20  765.75   21.41  699.30   20.46  650.20   19.73  594.52   18.87
  514.29   17.55  489.75   17.12  446.04   16.34  419.10   15.84  445.44   16.33
  458.61   16.57  430.47   16.05  452.63   16.46  454.30   13.66  438.28   13.42
  462.11   13.78  490.86   14.20  485.93   14.13  512.23   18.16  545.05   18.73
  546.33   18.75  570.14   19.15  575.29   19.24  539.90   18.64  593.95   19.55
  587.52   19.44  565.64   19.08  545.69   18.74  567.57   19.11  531.53   18.49
  541.83   18.67  498.07   17.90  515.44   18.21  498.71   17.91  465.89   17.31
  459.46   17.19  433.08   16.69  433.72   16.71  452.38   17.06  401.54   16.07
  415.06   16.34  440.15   16.83  418.92   16.42  398.33   16.01  424.07   16.52
  422.78   16.49  418.92   16.42  413.13   16.30  397.04   15.98  419.56   16.43
  404.76   16.14  425.35   16.54  445.95   16.94  438.87   16.81  416.34   16.37
  434.36   16.72  494.21   17.83  463.32   17.27  503.86   18.01  489.70   17.75
  503.22   18.00  563.71   19.05  570.14   19.15  601.67   19.68  601.67   19.68
  616.47   19.92  646.35   16.37  668.33   16.65  652.57   16.45  665.01   16.60
  667.08   16.63  652.99   16.45  655.26   20.10  644.17   19.93  646.02   19.96
  616.43   19.49  636.77   19.81  596.09   19.17  589.30   19.06  539.99   18.24
  580.67   18.92  597.93   19.20  592.39   19.11  578.83   18.89  615.81   19.48
  668.21   20.30  683.00   20.52  723.69   21.12  824.78   22.55  846.97   22.85
  968.41   24.43 1043.61   25.36 1093.54   25.96 1163.82   26.78 1321.00   28.54
 1354.91   28.90 1456.62   29.96 1503.47   30.44 1509.02   30.50 1476.96   30.17
 1488.06   30.29 1443.67   29.83 1436.28   29.76 1365.39   29.01 1285.87   28.15
 1131.76   26.41 1145.32   26.57 1038.68   25.30  922.79   23.85  863.00   23.06
  803.82   22.26  739.71   21.35  718.14   21.04  644.78   19.94  646.63   19.97
  604.72   19.31  573.28   18.80  565.26   18.67  529.51   18.07  528.28   18.05
  499.31   17.54  520.46   14.47  512.82   14.36  491.91   14.07  518.85   14.45
  539.77   14.73  549.36   17.86  586.53   18.46  590.01   18.51  645.76   19.37
  672.47   19.76  664.92   19.65  777.00   21.24  767.13   21.11  818.82   21.81
  839.72   22.08  889.08   22.72  882.11   22.63  897.79   22.83  956.45   23.57
  937.86   23.34  925.67   23.19  892.57   22.77  879.79   22.60  855.40   22.29
  810.10   21.69  729.97   20.59  713.70   20.36  673.64   19.78  642.28   19.31
  614.98   18.90  590.01   18.51  563.30   18.09  534.84   17.62  523.23   17.43
  471.54   16.55  486.64   16.81  443.67   16.05  466.32   16.46  440.19   15.99
  455.28   16.26  406.50   15.36  395.47   15.15  409.99   15.43  395.47   15.15
  386.76   14.99  423.93   15.69  373.98   14.74  396.05   15.17  431.48   15.83
  418.70   15.59  433.80   15.87  361.21   14.48  421.60   15.65  436.70   15.92
  424.79   12.80  439.82   13.02  430.18   12.88  456.01   13.26  473.43   16.51
  467.67   16.41  449.24   16.09  466.52   16.39  497.05   16.92  491.86   16.83
  534.49   17.55  565.01   18.04  584.59   18.35  616.85   18.85  642.19   19.23
  691.14   19.95  770.63   21.07  797.70   21.43  838.59   21.98  886.39   22.59
  973.94   23.68  948.02   23.37  989.49   23.87 1029.23   24.35 1029.23   24.35
 1051.12   24.60 1025.20   24.30 1005.04   24.06  988.91   23.87  977.39   23.73
  971.63   23.66  934.20   23.20  861.05   22.27  826.49   21.82  785.03   21.26
  766.59   21.01  698.63   20.06  639.88   19.20  591.50   18.46  553.49   17.85
  563.86   18.02  556.95   17.91  535.06   17.55  525.85   17.40  550.04   17.80
  533.91   17.54  527.00   17.42  548.31   17.77  520.09   17.31  537.94   17.60
  568.47   18.09  613.97   18.80  623.76   18.95  644.55   16.17  699.75   16.85
  702.18   16.88  771.99   17.70  805.28   18.08  848.30   18.56  855.13   23.12
  873.26   23.36  893.26   23.63  981.40   24.77  970.78   24.63 1047.66   25.59
 1019.53   25.24 1032.04   25.40 1058.92   25.73 1063.92   25.79 1007.03   25.09
  986.40   24.83  960.78   24.51  932.65   24.15  907.02   23.81  904.52   23.78
  872.01   23.35  834.51   22.84  804.50   22.43  790.12   22.22  848.88   23.04
  868.89   23.31  902.02   23.75  939.52   24.23  903.89   23.77  985.78   24.82
  997.03   24.96 1047.04   25.58 1085.79   26.05 1126.43   26.54 1112.67   26.37
 1155.81   26.88 1172.06   27.07 1141.43   26.71 1162.68   26.96 1170.18   27.05
 1125.18   26.52 1070.17   25.86 1035.16   25.44 1072.04   25.89  985.78   24.82
  920.14   23.98  920.77   23.99  837.01   22.87  784.50   22.14  731.99   21.39
  705.11   20.99  626.97   19.80  625.10   19.77  535.08   18.29  598.22   19.34
  533.21   18.26  502.58   17.72  473.20   17.20  474.23   25.53  445.36   24.74
  439.86   24.59  467.35   25.35  431.62   24.36  430.24   24.32  439.86   24.59
  445.36   24.74  472.85   25.49  417.87   23.97  404.12   23.57  456.36   25.05
  413.75   23.85  464.60   25.27  442.61   24.67  459.11   25.12  445.36   24.74
  529.21   26.97  534.71   27.11  492.10   26.01  514.09   26.58  511.34   26.51
  536.08   27.15  529.21   26.97  541.58   27.28  541.58   27.28  548.45   27.46
  529.21   26.97  558.08   27.70  566.32   27.90  537.46   27.18  540.21   27.25
  540.21   27.25  595.19   28.60  573.20   28.07  518.21   26.69  551.20   27.53
  538.83   27.22  522.34   26.80  541.58   27.28  501.72   26.26  501.72   26.26
  481.10   25.72  512.71   26.55  496.22   26.12  523.71   26.83  441.24   24.63
  486.60   25.86  492.10   26.01  530.58   27.01  464.60   25.27  470.10   25.42
  490.72   25.97                                                                