                                                                                
BANK 1 1190 238 CONST  505.000   10.000 0 0 ESD                                 
  980.43   57.77  864.68   54.25 1041.70   59.55  980.43   57.77 1045.11   59.65
 1041.70   59.55 1055.32   59.94 1021.28   58.96 1211.91   64.23  963.40   57.27
  922.55   56.04 1062.13   60.13 1109.79   61.47 1000.85   58.37  871.49   54.47
  942.98   56.66  960.00   57.17 1000.85   58.37  960.00   57.17 1089.36   60.90
  898.72   55.31  970.21   57.47  994.04   58.17  885.11   54.89 1011.06   58.67
  960.00   57.17  964.82   40.45  974.99   40.66  954.64   40.23  949.55   40.13
  952.95   40.20  942.57   56.43 1016.89   58.61  956.08   56.83  902.03   55.20
 1054.05   59.67  969.59   57.23  847.97   53.52  969.59   57.23  888.51   54.79
  956.08   56.83  956.08   56.83  929.05   56.02  986.49   57.73  918.92   55.72
  949.32   56.63  959.46   56.93  905.41   55.31  945.95   56.53  922.30   55.82
  935.81   56.23  945.95   56.53  934.22   39.44  905.91   38.84  932.56   39.41
 1004.16   40.89  912.57   38.98  952.38   55.93  896.55   54.26  896.55   54.26
  916.26   54.85  949.10   55.83  949.10   55.83  853.86   52.95  824.30   52.03
  978.65   56.69  978.65   56.69  880.13   53.76  857.14   53.06  955.67   56.02
  870.28   53.46  962.23   56.21  886.70   53.96  867.00   53.36  981.94   56.79
  949.10   55.83  952.38   55.93  850.57   52.85  857.14   53.06  899.84   54.36
  952.62   39.80  896.09   38.60  939.32   39.52  885.52   54.60  915.82   55.53
 1013.47   58.42  824.92   52.70  949.49   56.54  828.28   52.81  915.82   55.53
  922.56   55.73  922.56   55.73  939.39   56.24  952.86   56.64  888.89   54.71
  787.88   51.51  925.93   55.84  841.75   53.24  878.79   54.40  912.46   55.43
  962.96   56.94 1033.67   58.99  804.71   52.05  781.14   51.28  878.79   54.40
  929.29   55.94  979.80   57.44  890.75   38.62  862.29   38.00  900.80   38.84
  868.98   38.14  949.21   56.23  812.66   52.02  872.61   53.91  925.90   55.53
  802.66   51.70  849.29   53.18  766.03   50.51  792.67   51.38  902.58   54.83
  812.66   52.02  835.97   52.77  899.25   54.73  885.93   54.32 1022.48   58.36
  922.56   55.43  985.85   57.30 1032.47   58.64 1039.13   58.83 1145.71   61.77
 1222.31   63.80 1342.21   66.86 1738.55   76.09 2158.20   84.78 3003.97   72.77
 3608.64   79.76 3730.28   81.09 2787.13   70.10 2112.36   88.95 1284.64   69.36
  951.31   59.69  913.86   58.50  838.95   56.05  902.62   58.14  947.57   59.57
  910.11   58.38  812.73   55.17  940.07   59.34  955.06   59.81  936.33   59.22
 1026.22   62.00 1116.10   64.65 1307.12   69.97 1865.17   83.58 2265.92   92.12
 3265.92  110.60 3666.67  117.19 3254.68  110.41 2715.36  100.85 1891.39   84.17
 1116.10   64.65 1027.78   43.63  909.26   41.03  944.44   41.82  948.15   41.90
  728.94   51.67  871.79   56.51  794.87   53.96  875.46   56.63  864.47   56.27
  875.46   56.63  919.41   58.03  860.81   56.15  842.49   55.55  919.41   58.03
  875.46   56.63  901.10   57.45  890.11   57.10  915.75   57.92  963.37   59.40
  948.72   58.95  985.35   60.08 1179.49   65.73 1406.59   71.78 1446.89   72.80
 1586.08   76.22 1322.34   69.60 1164.84   65.32  934.62   42.40  923.08   42.13
  846.15   40.34  850.00   40.43  825.91   57.83  692.31   52.94  834.01   58.11
  854.25   58.81  902.83   60.46  700.40   53.25  846.15   58.53  829.96   57.97
  894.74   60.19  777.33   56.10  829.96   57.97  914.98   60.86  858.30   58.95
  866.40   59.23  882.59   59.78  838.06   58.25  668.02   52.00  769.23   55.81
  829.96   57.97  777.33   56.10  817.81   57.54  850.20   58.67  919.03   61.00
  882.66   40.63  804.11   38.78  863.96   40.19  914.45   41.35  879.24   55.28
  834.06   53.84  820.16   53.39  750.65   51.08  834.06   53.84  788.88   52.36
  806.26   52.93  795.83   52.59  834.06   53.84  847.96   54.28  747.18   50.96
  917.46   56.47  854.91   54.51  872.28   55.06  900.09   55.93  851.43   54.40
  809.73   53.05  799.30   52.70  761.08   51.43  886.19   55.50  823.63   53.50
  858.38   54.62  750.65   51.08  802.43   37.33  816.33   37.65  792.01   37.09
  878.85   39.07  802.08   52.77  722.22   50.08  857.64   54.57  829.86   53.68
  739.58   50.68  784.72   52.20  913.19   56.31  885.42   55.45  829.86   53.68
  836.81   53.90  753.47   51.15  815.97   53.23  836.81   53.90  774.31   51.85
  829.86   53.68  791.67   52.43  739.58   50.68  927.08   56.74  864.58   54.79
  909.72   56.20  875.00   55.12  850.69   54.35  756.94   51.27  900.26   39.86
  843.78   38.59  861.43   39.00  789.06   37.32  861.76   55.63  883.30   56.32
  829.44   54.57  944.34   58.23  797.13   53.50  764.81   52.40  786.36   53.14
  725.31   51.03  850.99   55.28  919.21   57.45  818.67   54.22  865.35   55.74
  761.22   52.28  793.54   53.38  811.49   53.98  789.95   53.26  883.30   56.32
  833.03   54.69  876.12   56.09  897.67   56.77  800.72   53.62  804.31   53.74
 1044.88   61.25 1149.12   44.90 1761.40   55.59 2252.63   62.86 2303.51   63.57
 2202.40   86.92 1560.89   73.18 1173.24   63.44  933.10   56.58  864.49   54.46
  905.66   55.74  823.33   53.15  864.49   54.46  789.02   52.03  789.02   52.03
  837.05   53.59  881.65   55.00  730.70   50.07  740.99   50.42  816.47   52.92
  861.06   54.35  775.30   51.57  789.02   52.03  768.44   51.34  734.13   50.18
  734.13   50.18  802.74   52.48  747.86   50.65  727.91   35.60  891.60   39.40
  868.96   38.90 1003.05   41.79 1068.08   61.46 1301.50   67.85 1538.46   73.76
 1527.85   73.51 2061.89   85.39 3048.63  103.84 3766.58  115.42 3971.71  118.52
 2977.90  102.63 1665.78   76.76 1007.96   59.71  820.51   53.87  891.25   56.14
  809.90   53.52  824.05   53.99  827.59   54.10  788.68   52.81  926.61   57.25
 1068.08   61.46 1407.60   70.56 2868.26  100.72 6663.13  153.5116920.99  181.13
25357.25  221.7326225.88  225.5017739.21  185.46 7817.74  123.12 1995.71   92.55
 1030.04   66.49  952.79   63.95  944.21   63.66 1184.55   71.30 1875.54   89.72
 2905.58  111.67 3725.32  126.45 3300.43  119.02 2274.68   98.81 1287.55   74.34
  914.16   62.64  918.45   62.78  858.37   60.70  682.40   54.12  819.74   59.31
  884.12   61.60  785.41   58.06  806.87   58.85  871.24   61.15  918.45   62.78
 1103.00   68.80 1090.13   68.40  975.13   43.61  977.08   43.65  881.52   41.46
  668.45   48.88  700.63   50.04  811.44   53.86  789.99   53.14  832.89   54.56
  732.80   51.18  779.27   52.78  757.82   52.05  825.74   54.33  772.12   52.54
  797.14   53.38  757.82   52.05  797.14   53.38  875.78   55.95  697.05   49.92
  818.59   54.09  722.07   50.80  747.10   51.68  775.69   52.66  736.37   51.31
  815.01   53.98  847.18   55.03  707.77   50.30  700.63   50.04  734.58   36.64
  749.20   37.00  849.70   39.40  763.82   37.36  826.17   55.57  818.69   55.32
  766.36   53.52  814.95   55.20  826.17   55.57  717.76   51.80  766.36   53.52
  818.69   55.32  743.93   52.74  811.21   55.07  728.97   52.20  773.83   53.79
  736.45   52.47  785.05   54.17  747.66   52.87  800.00   54.69  680.37   50.43
  837.38   55.95  792.52   54.43  646.73   49.17  755.14   53.13  732.71   52.34
  732.71   52.34  818.43   38.45  883.47   39.95  890.70   40.11 1111.11   44.80
 1451.05   71.23 1538.46   73.34 1374.13   69.32 1090.91   61.76  961.54   57.98
  734.27   50.67  678.32   48.70  713.29   49.94  716.78   50.06  870.63   55.17
  860.14   54.84 1160.84   63.71 1657.34   76.12 3171.33  105.30 4171.33  120.77
 3737.76  114.32 2430.07   92.18 1374.13   69.32  919.58   56.70  804.20   53.03
  870.63   55.17  723.78   50.31  660.84   48.07  746.10   36.98  766.27   37.48
  747.94   37.03  762.60   37.39  797.69   55.44  751.45   53.81  724.47   52.84
  693.64   51.70  789.98   55.17  863.20   57.67  709.06   52.27  801.54   55.58
  770.71   54.50  763.01   54.22  770.71   54.50  793.83   55.31  724.47   52.84
  994.22   61.90 1079.00   64.48 1425.82   74.12 2350.67   95.18 4447.01  130.91
 7032.76  164.62 6832.37  162.26 4947.98  138.08 2647.40  101.00 1198.46   67.96
  898.81   41.33  737.29   37.43  769.60   38.24  731.59   37.29  637.30   48.88
  742.27   52.75  776.01   53.94  783.51   54.20  731.02   52.35  764.76   53.54
  697.28   51.13  708.53   51.54  738.52   52.62  779.76   54.07  892.22   57.83
 1177.13   66.43 1859.42   83.49 2845.36  103.28 3463.92  113.95 2909.09  104.43
 1686.97   79.52 1068.42   63.29  817.24   55.35  828.49   55.73  697.28   51.13
  813.50   55.22  761.01   53.41  805.08   39.66  859.79   40.99  992.67   44.04
 1006.35   44.35 1061.22   65.81 1004.08   64.02  881.63   59.99  751.02   55.37
  710.20   53.84  812.24   57.58  763.27   55.82  787.76   56.70  706.12   53.69
  632.65   50.82  665.31   52.11  763.27   55.82  840.82   58.58  714.29   53.99
  718.37   54.15  742.86   55.06  795.92   57.00  722.45   54.30  726.53   54.46
  738.78   54.91  832.65   58.30  893.88   60.40  755.10   55.52  761.90   38.48
  777.45   38.87  888.24   41.55 1010.69   44.32 1131.73   64.80 1161.41   65.65
  994.43   60.74  816.33   55.04  794.06   54.28  816.33   55.04  705.01   51.15
  860.85   56.52  716.14   51.55  742.12   52.48  775.51   53.64  756.96   53.00
  764.38   53.26  634.51   48.52  801.48   54.53  742.12   52.48  745.83   52.61
  701.30   51.01  820.04   55.16  886.83   57.36 1131.73   64.80 1450.83   73.37
 1432.28   72.90 1349.55   49.31 1185.59   46.22  992.79   42.29  978.38   41.99
  949.21   57.66  837.13   54.15  735.55   50.76  812.61   53.35  994.75   59.03
 1418.56   70.49 1614.71   75.20 1856.39   80.64 2402.80   91.74 3352.01  108.36
 5369.53  137.14 7148.86  158.24 6725.04  153.48 4189.14  121.13 2136.60   86.51
 1239.93   65.90  819.61   53.58  760.07   51.60  732.05   50.64  711.03   49.90
  746.06   51.12  767.08   51.83  688.35   35.27  767.84   37.25  688.35   35.27
  663.05   34.61  715.45   35.95  861.94   56.71 1108.21   64.30 1444.03   73.40
 1552.24   76.10 1238.81   67.99  962.69   59.93  839.55   55.97  705.22   51.30
  697.76   51.03  716.42   51.70  660.45   49.64  690.30   50.75  694.03   50.89
  847.01   56.22  742.54   52.64  895.52   57.81 1440.30   73.31 2167.91   89.94
 2705.22  100.47 2873.13  103.54 1884.33   83.85 1395.52   72.16  839.34   39.66
  783.14   38.30  696.96   36.14  706.32   36.38  718.72   52.00  662.28   49.92
  696.14   51.18  737.54   52.68  684.85   50.76  771.40   53.88  632.17   48.77
  793.98   54.66  733.77   52.55  812.79   55.30  842.90   56.32  797.74   54.79
  809.03   55.18  820.32   55.56  775.16   54.01  722.48   52.14  632.17   48.77
  771.40   53.88  760.11   53.48  760.11   53.48  748.82   53.08  786.45   54.40
  711.19   51.73  711.59   37.14  701.89   36.89  750.36   38.14  688.32   36.53
  824.00   57.41  796.00   56.43  708.00   53.22  824.00   57.41 1108.00   66.57
 1200.00   69.28 1852.00   86.07 2764.00  105.15 4340.00  131.76 6340.00  159.25
 6936.00  166.57 5464.00  147.84 3380.00  116.28 1928.00   87.82 1260.00   70.99
  820.00   57.27  740.00   54.41  720.00   53.67  732.00   54.11  616.00   49.64
  728.00   53.96  804.00   56.71  724.00   53.81  636.98   36.53  685.18   37.89
  777.37   40.36  672.60   37.54  774.48   58.38  682.07   54.79  699.67   55.49
  717.27   56.18  695.27   55.31  827.28   60.34  849.28   61.13  844.88   60.97
  924.09   63.77 1117.71   70.13 1465.35   80.30 2279.43  100.15 3317.93  120.83
 3568.76  125.32 3181.52  118.32 2200.22   98.40 1619.36   84.42 1179.32   72.04
 1104.51   69.72  906.49   63.16  866.89   61.76  673.27   54.43  752.48   57.54
  721.67   56.35  675.20   36.46  767.72   38.87  736.22   38.07  797.86   53.31
  701.69   49.99  744.43   51.49  708.82   50.25  890.47   56.32  901.16   56.66
  829.92   54.37 1111.31   62.92 1232.41   66.25 1620.66   75.98 2724.84   98.52
 4089.05  120.68 4562.78  127.48 4470.17  126.18 3319.68  108.74 1959.04   83.53
 1335.71   68.98  947.46   58.09 1004.45   59.81 1364.20   69.71 1983.97   84.06
 3365.98  109.50 5118.43  135.02 6878.25  112.01 6077.52  105.29 4607.39   91.67
 3137.25   75.65 2199.73   63.34 1932.71   85.00 1820.56   82.50 1663.55   78.86
 1457.94   73.83 1192.52   66.77  990.65   60.86  867.29   56.94  755.14   53.13
  788.79   54.30  927.10   58.87  923.36   58.75 1214.95   67.39 1480.37   74.39
 1592.52   77.16 1476.64   74.30 1278.50   69.13  938.32   59.23  717.76   51.80
  758.88   53.26  635.51   48.74  796.26   54.56  732.71   52.34  694.29   35.76
  694.29   35.76  732.97   36.74  661.14   34.89  642.47   48.29  751.36   52.22
  744.10   51.97  747.73   52.10  696.91   50.30  689.66   50.03  747.73   52.10
  802.18   53.96  751.36   52.22  646.10   48.43  678.77   49.64  722.32   51.20
  682.40   49.77  689.66   50.03  791.29   53.59  823.96   54.69  976.41   59.53
  998.19   60.19 1284.94   68.29 1524.50   74.39 1680.58   78.10 1695.10   78.44
 1484.57   73.41 1230.49   66.83 1070.47   43.70  845.67   38.84  854.59   39.05
  845.61   54.47  961.40   58.08  961.40   58.08  996.49   59.13  940.35   57.44
  912.28   56.58  936.84   57.33  782.46   52.40  800.00   52.98  698.25   49.50
  684.21   49.00  642.11   47.47  694.74   49.37  645.61   47.60  666.67   48.37
  764.91   51.81  729.82   50.60  708.77   49.87  670.18   48.49  754.39   51.45
  736.84   50.85  652.63   47.85  614.04   46.42  670.18   48.49  744.61   36.95
  728.11   36.54  673.09   35.13  757.45   37.27  833.81   56.60  760.81   54.07
  787.70   55.02  772.33   54.48  922.19   59.53 1122.00   65.66 1252.64   69.38
 1525.46   76.56 1944.28   86.43 2136.41   90.60 2578.29   99.53 2301.63   94.04
 2117.20   90.20 1494.72   75.79 1171.95   67.11 1064.36   63.95  714.70   52.40
  672.43   50.83  741.59   53.38  630.16   49.21  787.70   55.02  764.65   54.20
  791.07   38.37  765.01   37.74  876.69   40.40  878.55   40.44 1033.04   43.85
 1043.32   61.37  945.85   58.43 1032.49   61.05  888.09   56.62  794.22   53.55
  711.19   50.67  790.61   53.42  722.02   51.05  833.94   54.87  949.46   58.55
  963.90   58.99 1198.56   65.78 1281.59   68.02 1097.47   62.94 1014.44   60.52
  981.95   59.54  837.55   54.99  826.71   54.63  830.32   54.75  693.14   50.02
  722.02   51.05  671.48   49.24  757.69   37.02  770.34   37.32  781.19   37.59
  699.82   35.57  717.39   50.98  778.99   53.13  869.57   56.13  960.14   58.98
  996.38   60.08 1083.33   62.65 1235.51   66.91 1394.93   71.09 1702.90   78.55
 1608.70   76.35 1594.20   76.00 1409.42   71.46 1307.97   68.84 1086.96   62.76
 1057.97   61.91 1130.43   64.00 1170.29   65.12 1449.28   72.46 1481.88   73.27
 1634.06   76.94 1369.57   70.44 1304.35   68.75 1097.83   63.07  933.57   40.67
  883.97   39.57  864.48   39.13  922.94   40.43  876.95   55.13  824.96   53.47
  970.54   58.00  797.23   52.57  942.81   57.17 1015.60   59.33 1050.26   60.34
 1493.93   71.96 1802.43   79.04 2398.61   91.18 3036.40  102.59 3143.85  104.39
 3227.04  105.76 2610.05   95.12 2201.04   87.35 1733.10   77.51 1279.03   66.58
 1133.45   62.68  772.96   51.76  727.90   50.23  714.04   49.75  734.84   50.47
  776.43   51.88  693.29   34.88  719.61   35.54  716.10   35.45  710.84   35.32
  760.89   52.01  632.89   47.44  707.56   50.16  657.78   48.36  643.56   47.84
  707.56   50.16  736.00   51.16  682.67   49.27  608.00   46.49  654.22   48.23
  714.67   50.41  643.56   47.84  693.33   49.65  693.33   49.65  654.22   48.23
  693.33   49.65  892.44   56.33  718.22   50.53  792.89   53.10  800.00   53.33
  977.78   58.96 1027.56   60.44 1290.67   67.74 1512.28   52.46 1910.83   58.97
 2458.60   66.89 2717.02   70.32 3079.22  107.14 2773.53  101.68 2687.79  100.10
 2393.29   94.46 1875.12   83.61 1498.60   74.74 1226.47   67.62 1006.52   61.26
 1025.16   61.82 1256.29   68.43 1349.49   70.93 1256.29   68.43 1219.01   67.41
 1181.73   66.37 1129.54   64.89  995.34   60.91  849.95   56.29  801.49   54.66
  764.21   53.37  771.67   53.63  715.75   51.65  659.83   49.60  820.13   55.29
  743.38   36.85  770.78   37.52  761.64   37.30  810.96   38.49  777.08   52.75
  866.61   55.71  906.00   56.96 1124.44   63.46 1342.88   69.35 1446.73   71.98
 1822.74   80.79 2352.73   91.79 2456.58   93.79 2417.19   93.04 2205.91   88.88
 2062.67   85.94 1747.54   79.11 1464.64   72.42 1192.48   65.35  945.39   58.18
  791.41   53.24  691.14   49.75  755.60   52.02  673.23   49.10  744.85   51.65
  755.60   52.02  794.99   53.36  843.30   38.37  935.84   40.42 1023.13   42.27
 1220.43   46.16 1247.02   65.18 1277.68   65.98 1339.01   67.54 1362.86   68.14
 1264.05   65.63 1311.75   66.85 1550.26   72.68 1655.88   75.11 1798.98   78.29
 1976.15   82.06 2238.50   87.33 2211.24   86.80 2126.06   85.11 1829.64   78.95
 1614.99   74.18 1567.29   73.08 1321.98   67.11 1011.93   58.72  919.93   55.99
  814.31   52.67  838.16   53.44  708.69   49.14  763.20   50.99  727.44   36.15
  793.89   37.76  745.40   36.59  820.84   38.40  850.90   56.85  866.10   57.36
  763.53   53.86  915.48   58.97 1014.25   62.07 1078.82   64.02 1044.63   62.99
 1196.58   67.42  991.45   61.37 1075.02   63.90 1075.02   63.90 1040.84   62.88
 1075.02   63.90 1177.59   66.88 1295.35   70.15 1591.64   77.76 1861.35   84.09
 2161.44   90.61 2666.67  100.65 3240.27  110.94 4235.52  126.84 4197.53  126.27
 4850.90  135.75 4741.31   95.67 4619.69   94.44 3833.98   86.03 3160.23   78.11
 2681.06  102.59 2080.47   90.37 1605.50   79.39 1279.69   70.88  977.43   61.94
  820.41   56.75  765.46   54.82  785.08   55.51  855.74   57.96  934.25   60.56
  949.95   61.07  891.07   59.14 1012.76   63.05 1016.68   63.17  949.95   61.07
 1142.30   66.96 1040.24   63.90 1000.98   62.68  910.70   59.79  836.11   57.29
  789.01   55.65  631.99   49.81  639.84   50.12  752.66   37.31  667.59   35.14
  739.71   36.99  773.00   37.81  776.22   52.10  776.22   52.10  783.22   52.33
  814.69   53.37  835.66   54.05 1031.47   60.05 1000.00   59.13 1090.91   61.76
 1174.83   64.09 1139.86   63.13 1150.35   63.42 1157.34   63.61 1090.91   61.76
 1094.41   61.86 1097.90   61.96 1034.97   60.16 1108.39   62.25 1381.12   69.49
 1276.22   66.80 1576.92   74.25 1709.79   77.32 2101.40   85.72 2237.76   88.46
 2628.92   67.68 2665.51   68.14 2780.49   69.60 2684.67   68.39 2472.22   92.65
 2118.06   85.76 1756.94   78.11 1812.50   79.33 1399.31   69.70 1354.17   68.57
 1184.03   64.12 1000.00   58.93 1027.78   59.74  857.64   54.57 1072.92   61.04
 1135.42   62.79 1083.33   61.33 1333.33   68.04 1402.78   69.79 1343.75   68.31
 1562.50   73.66 1663.19   75.99 1638.89   75.44 1743.06   77.80 1718.75   77.25
 1520.83   72.67 1270.83   66.43 1171.49   44.99 1086.83   43.33  995.25   41.47
  886.39   39.14  835.77   53.61  718.83   49.72  674.12   48.15  705.07   49.24
  763.54   51.25  825.45   53.28  773.86   51.59  777.30   51.71  780.74   51.82
  773.86   51.59  818.57   53.06  787.62   52.05  959.59   57.45  987.10   58.27
 1141.87   62.67 1207.22   64.44 1386.07   69.05 1417.02   69.81 1626.83   74.80
 1764.40   77.90 1953.57   81.97 1809.11   78.88 1822.87   79.18 1830.29   58.59
 1667.14   55.91 1502.11   53.07 1413.97   51.49 1134.02   68.38 1158.76   69.13
  940.21   62.27 1068.04   66.36 1022.68   64.94 1039.18   65.46  985.57   63.75
 1076.29   66.62 1204.12   70.47 1348.45   74.57 1319.59   73.77 1484.54   78.24
 1645.36   82.37 1793.81   86.01 2082.47   92.67 1950.52   89.68 1934.02   89.30
 1954.64   89.78 1785.57   85.81 1645.36   82.37 1612.37   81.54 1694.85   83.60
 1591.75   81.02 1740.21   84.71 1872.16   87.87 2004.12   90.91 2020.62   91.28