                                                                                
BANK 1 2431 487 CONST  602.500    5.000 0 0 ESD                                 
  510.64   24.07  550.35   24.99  506.10   23.96  506.10   23.96  474.33   23.20
  523.12   24.36  540.14   24.76  535.60   24.65  518.58   24.26  520.85   24.31
  504.96   23.94  519.72   24.28  464.11   22.95  492.48   23.64  494.75   23.69
  470.92   23.12  477.73   23.28  495.89   23.72  532.20   24.57  539.01   24.73
  499.29   23.80  507.23   23.99  510.64   24.07  529.93   24.52  500.43   23.83
  517.45   24.23  470.92   23.12  452.77   22.67  485.67   23.48  514.04   24.15
  464.11   22.95  546.95   24.91  508.37   24.02  519.72   24.28  493.62   23.67
  531.06   24.55  494.75   23.69  487.94   23.53  507.23   23.99  500.43   23.83
  497.02   23.75  529.93   24.52  491.35   23.61  495.89   23.72  502.70   23.88
  480.00   23.34  456.17   22.75  494.75   23.69  484.54   23.45  484.54   23.45
  494.75   23.69  460.71   22.86  488.34   16.61  490.04   16.64  497.95   16.78
  490.60   16.65  488.34   16.61  480.99   16.49  514.91   17.06  492.30   16.68
  509.26   16.97  508.12   16.95  492.30   16.68  479.86   16.47  492.86   16.69
  483.82   16.54  504.73   16.89  490.04   16.64  478.17   16.44  520.56   17.15
  478.17   16.44  475.34   16.39  488.34   16.61  462.34   16.17  498.52   16.79
  490.04   16.64  500.78   16.82  474.78   16.38  487.78   16.60  488.91   16.62
  470.26   16.30  478.17   16.44  471.95   16.33  478.73   16.45  482.69   16.52
  487.78   16.60  503.60   16.87  484.95   16.56  489.47   16.63  472.52   16.34
  458.39   16.10  461.21   16.15  493.43   16.70  466.30   16.23  492.86   16.69
  479.86   16.47  488.91   16.62  481.56   16.50  456.13   16.06  473.08   16.35
  490.04   16.64  504.17   16.88  492.86   16.69  479.30   16.46  475.91   16.40
  499.86   13.65  467.06   13.19  479.73   13.37  479.73   13.37  448.42   12.93
  484.58   13.44  491.29   13.53  449.91   12.95  459.62   15.97  495.70   16.59
  442.96   15.68  500.69   16.67  474.60   16.23  472.94   16.20  502.91   16.71
  506.80   16.77  484.60   16.40  469.05   16.14  485.71   16.42  486.26   16.43
  458.51   15.95  463.50   16.04  491.26   16.51  485.15   16.41  480.71   16.34
  473.49   16.21  466.28   16.09  445.74   15.73  463.50   16.04  462.39   16.02
  495.14   16.58  462.95   16.03  490.70   16.50  466.28   16.09  467.94   16.12
  498.47   16.63  452.96   15.86  445.74   15.73  477.38   16.28  490.15   16.49
  472.38   16.19  466.83   16.10  447.96   15.77  481.27   16.34  435.19   15.54
  490.70   16.50  446.85   15.75  464.06   16.05  450.18   15.81  482.93   16.37
  478.49   16.30  465.17   16.07  458.51   15.95  459.06   15.96  486.26   16.43
  463.14   13.12  476.88   13.31  472.79   13.25  468.71   13.19  459.42   13.06
  442.78   15.66  468.83   16.12  426.16   15.37  458.30   15.94  476.59   16.25
  483.79   16.37  479.91   16.31  466.06   16.07  480.47   16.32  460.52   15.98
  437.24   15.57  451.65   15.82  445.00   15.70  479.36   16.30  459.96   15.97
  471.60   16.17  421.17   15.28  444.44   15.69  449.99   15.79  457.19   15.92
  450.54   15.80  459.41   15.96  464.39   16.04  471.04   16.16  445.55   15.71
  419.51   15.25  468.27   16.11  411.19   15.10  469.38   16.13  459.41   15.96
  461.62   15.99  488.78   16.46  428.93   15.42  469.94   16.14  425.05   15.35
  446.11   15.72  435.58   15.54  444.44   15.69  433.36   15.50  456.64   15.91
  436.13   15.55  422.83   15.31  461.62   15.99  458.85   15.95  419.51   15.25
  440.57   15.63  449.43   15.78  454.97   15.88  457.19   15.92  442.23   15.65
  466.13   13.13  462.80   13.08  433.23   12.65  431.98   15.53  458.21   15.99
  433.65   15.56  452.63   15.89  455.98   15.95  450.96   15.86  450.96   15.86
  478.86   16.35  450.40   15.85  443.70   15.74  461.00   16.04  440.35   15.68
  463.79   16.09  472.72   16.24  482.77   16.41  470.49   16.20  487.79   16.50
  480.54   16.38  527.98   17.17  492.81   16.58  490.02   16.54  524.07   17.10
  525.74   17.13  564.25   17.75  597.18   18.26  658.02   19.16  700.43   19.77
  781.36   20.88  850.01   21.78  945.44   22.97 1168.69   25.54 1393.05   27.88
 1680.48   30.63 1929.96   32.82 2150.97   34.65 2303.89   35.86 2153.76   34.67
 1888.66   32.47 1506.35   29.00 1241.24   26.32  857.26   21.87  650.20   19.05
  517.93   17.00  457.10   15.97  462.68   16.07  479.42   16.36  424.72   15.40
  438.68   15.65  450.96   15.86  451.51   15.87  428.07   15.46  438.14   13.00
  447.40   13.14  465.91   13.41  446.63   13.12  455.41   16.36  438.96   16.06
  447.77   16.22  436.61   16.02  457.18   16.39  463.05   16.50  498.90   17.12
  476.57   16.73  487.73   16.93  495.96   17.07  540.62   17.82  570.59   18.31
  636.40   19.34  696.34   20.23  768.03   21.24  817.98   21.92 1011.31   24.38
 1205.82   26.62 1503.16   29.72 1793.45   32.46 2079.62   34.96 2185.40   35.84
 2221.83   36.13 2062.00   34.81 1828.71   32.78 1463.79   29.33 1087.12   25.27
  768.62   21.25  601.73   18.80  503.60   17.20  437.20   16.03  466.58   16.56
  434.85   15.99  441.90   16.11  423.68   15.78  448.36   16.23  450.71   16.27
  446.01   16.19  467.75   16.58  435.43   16.00  445.42   16.18  444.25   16.16
  448.95   16.24  446.01   16.19  444.84   16.17  451.89   16.30  423.68   15.78
  432.50   15.94  454.83   16.35  439.55   13.21  444.71   13.28  468.11   13.63
  444.31   13.28  446.69   13.31  428.84   13.04  440.74   16.49  470.99   17.05
  461.73   16.88  438.27   16.45  453.70   16.74  426.54   16.23  431.48   16.32
  439.51   16.47  467.28   16.98  436.42   16.41  438.89   16.46  435.80   16.40
  441.36   16.51  498.77   17.55  506.17   17.68  555.56   18.52  580.86   18.94
  638.89   19.86  657.41   20.14  770.37   21.81  866.67   23.13  875.31   23.24
  894.44   23.50  862.96   23.08  792.59   22.12  707.41   20.90  587.65   19.05
  514.81   17.83  465.43   16.95  438.89   16.46  432.10   16.33  452.47   16.71
  458.64   16.83  430.86   16.31  425.31   16.20  425.93   16.21  450.00   16.67
  445.68   16.59  467.28   16.98  419.75   16.10  445.06   16.57  419.14   16.08
  435.19   16.39  429.01   16.27  427.16   16.24  433.33   16.36  470.99   17.05
  433.95   16.37  442.61   13.69  430.75   13.51  437.10   13.61  416.77   13.29
  449.81   13.80  440.91   13.67  449.36   16.97  436.54   16.73  444.87   16.89
  443.59   16.86  424.36   16.49  417.31   16.36  432.69   16.65  475.00   17.45
  451.92   17.02  454.49   17.07  430.77   16.62  446.15   16.91  428.85   16.58
  423.08   16.47  427.56   16.56  419.87   16.41  412.18   16.25  432.69   16.65
  431.41   16.63  430.13   16.60  412.82   16.27  453.21   17.04  479.49   17.53
  438.46   16.76  402.56   16.06  455.13   17.08  458.33   17.14  444.87   16.89
  442.95   16.85  433.97   16.68  417.95   16.37  450.64   17.00  410.26   16.22
  448.08   16.95  419.87   16.41  441.03   16.81  439.74   16.79  426.92   16.54
  439.10   16.78  428.85   16.58  402.56   16.06  404.49   16.10  418.59   16.38
  438.46   16.76  401.28   16.04  423.08   16.47  398.72   15.99  448.08   16.95
  412.18   16.25  441.14   13.49  421.75   13.19  453.52   13.68  418.45   13.14
  413.28   16.05  411.41   16.01  423.25   16.24  436.96   16.50  476.24   17.23
  457.53   16.89  423.25   16.24  412.03   16.03  417.02   16.12  426.99   16.31
  430.73   16.39  432.60   16.42  418.26   16.15  379.62   15.38  426.37   16.30
  407.67   15.94  421.38   16.21  423.25   16.24  441.95   16.60  392.71   15.65
  436.34   16.49  410.16   15.99  451.30   16.77  433.22   16.43  427.61   16.33
  393.95   15.67  421.38   16.21  440.70   16.57  435.09   16.47  411.41   16.01
  418.26   16.15  434.47   16.46  423.25   16.24  451.30   16.77  416.39   16.11
  413.90   16.06  438.83   16.54  390.84   15.61  420.13   16.18  428.86   16.35
  407.67   15.94  438.21   16.53  425.74   16.29  435.72   16.48  456.29   16.86
  426.99   16.31  442.57   16.61  415.15   16.09  443.82   16.63  439.58   13.35
  436.75   13.30  436.75   13.30  417.70   13.01  438.37   13.33  398.32   15.19
  418.58   15.57  431.90   15.81  413.95   15.48  432.48   15.82  411.06   15.43
  432.48   15.82  436.53   15.90  416.27   15.52  424.95   15.69  407.01   15.35
  435.37   15.88  410.48   15.42  407.01   15.35  387.90   14.99  438.85   15.94
  409.90   15.40  422.06   15.63  413.37   15.47  394.27   15.11  415.11   15.50
  431.32   15.80  431.90   15.81  402.95   15.27  386.74   14.96  430.74   15.79
  437.69   15.92  402.37   15.26  441.74   15.99  441.74   15.99  408.16   15.37
  438.27   15.93  393.11   15.09  416.85   15.53  398.90   15.20  440.58   15.97
  435.95   15.89  434.80   15.87  444.06   16.03  398.90   15.20  430.16   15.78
  422.64   15.64  414.53   15.49  408.16   15.37  405.85   15.33  424.95   15.69
  399.48   15.21  397.74   15.17  443.48   16.02  409.90   15.40  422.20   12.84
  385.91   12.27  417.91   12.77  425.32   12.88  406.20   12.59  418.36   15.69
  393.06   15.21  431.30   15.93  389.53   15.14  386.00   15.07  420.12   15.72
  407.18   15.48  415.42   15.63  438.95   16.07  404.82   15.43  403.65   15.41
  402.47   15.39  438.36   16.06  415.42   15.63  405.41   15.45  411.89   15.57
  425.42   15.82  399.53   15.33  437.19   16.04  401.29   15.37  424.83   15.81
  460.72   16.46  404.82   15.43  440.13   16.09  414.83   15.62  410.12   15.53
  438.36   16.06  457.78   16.41  506.03   17.26  600.76   18.80  643.72   19.46
  832.01   22.13 1033.83   24.66 1206.83   26.65 1331.57   27.99 1380.41   28.50
 1305.09   27.71 1112.68   25.59  968.52   23.87  720.80   20.59  570.17   18.32
  490.14   16.98  460.72   16.46  411.30   15.56  461.31   16.48  426.01   15.83
  412.47   15.58  436.60   16.03  440.17   13.08  435.12   13.00  416.08   12.71
  423.47   12.83  406.37   12.56  408.19   15.45  428.07   15.82  418.71   15.65
  392.98   15.16  424.56   15.76  400.00   15.29  426.32   15.79  410.53   15.49
  414.62   15.57  405.26   15.39  401.75   15.33  438.01   16.00  420.47   15.68
  426.32   15.79  398.25   15.26  433.33   15.92  433.33   15.92  401.75   15.33
  403.51   15.36  411.11   15.51  411.70   15.52  390.64   15.11  397.08   15.24
  400.00   15.29  429.82   15.85  409.94   15.48  423.98   15.75  411.70   15.52
  416.96   15.62  452.63   16.27  393.57   15.17  428.65   15.83  395.91   15.22
  424.56   15.76  465.50   16.50  416.96   15.62  445.03   16.13  463.16   16.46
  469.59   16.57  533.33   17.66  563.74   18.16  622.22   19.08  683.63   19.99
  739.18   20.79  773.68   21.27  881.29   22.70 1008.19   24.28 1225.15   26.77
 1589.47   30.49 1915.37   27.36 2213.23   29.41 2312.13   30.06 2301.57   29.99
 2009.19   28.02 1596.79   24.98 1308.95   27.56  893.92   22.78  660.57   19.58
  560.73   18.04  487.59   16.82  446.96   16.11  443.48   16.04  424.90   15.70
  417.94   15.58  406.91   15.37  444.06   16.05  431.29   15.82  428.38   15.77
  424.32   15.69  419.68   15.61  431.29   15.82  451.60   16.19  473.08   16.57
  450.44   16.17  477.14   16.64  580.47   18.36  706.43   20.25  925.85   23.18
 1363.52   28.13 2052.53   34.52 3322.01   43.91 5106.95   54.45 7677.26   66.76
10758.38   79.0213450.59   88.3615461.91   94.7415333.62   94.3413854.01   89.68
11054.42   80.10 7731.82   66.99 4850.38   53.06 2670.73   39.37 1405.31   28.56
  819.04   21.80  580.47   18.36  488.17   16.83  470.76   16.53  474.24   16.59
  484.69   16.77  498.04   17.00  558.99   18.01  643.16   19.32  720.97   17.25
  943.12   19.73 1242.90   22.65 1555.07   25.34 1908.95   28.08 2075.36   29.27
 2089.51   36.75 1916.95   35.20 1555.66   31.71 1246.08   28.38  871.87   23.74
  673.45   20.86  516.40   18.27  477.62   17.57  453.71   17.12  444.01   16.94
  454.35   17.14  426.56   16.60  432.38   16.72  415.58   16.39  390.37   15.88
  426.56   16.60  410.41   16.29  376.80   15.61  420.10   16.48  414.93   16.38
  391.66   15.91  410.41   16.29  451.77   17.09  490.55   17.81  510.58   18.17
  537.08   18.63  539.02   18.66  588.79   19.51  534.50   18.59  553.24   18.91
  564.87   19.11  520.92   18.35  535.79   18.61  493.78   17.86  451.77   17.09
  434.97   16.77  408.47   16.25  417.51   16.43  374.21   15.55  440.14   16.87
  402.00   16.12  416.22   16.40  380.68   15.69  433.03   16.73  429.79   16.67
  398.77   16.05  402.65   16.13  385.85   15.79  403.30   16.14  393.88   12.85
  381.31   12.64  431.18   13.44  390.11   12.79  416.51   13.21  439.46   16.90
  406.31   16.25  393.95   16.00  379.65   15.71  402.41   16.17  379.00   15.70
  377.05   15.66  373.80   15.59  416.06   16.45  382.90   15.78  404.36   16.21
  395.90   16.04  391.35   15.95  422.56   16.57  396.55   16.06  401.11   16.15
  388.75   15.90  406.96   16.27  419.31   16.51  373.80   15.59  412.81   16.38
  382.25   15.76  401.76   16.16  366.00   15.43  406.31   16.25  384.85   15.82
  405.66   16.24  390.70   15.94  405.66   16.24  359.50   15.29  401.11   16.15
  350.40   15.09  388.10   15.88  395.25   16.03  370.55   15.52  388.75   15.90
  406.31   16.25  400.46   16.13  375.75   15.63  388.10   15.88  411.51   16.36
  366.65   15.44  358.20   15.26  407.61   16.28  404.36   16.21  384.85   15.82
  354.30   15.18  373.80   15.59  382.90   15.78  382.36   12.78  394.75   12.99
  409.27   13.22  375.52   12.67  415.41   15.91  377.65   15.17  390.44   15.42
  408.10   15.77  444.04   16.45  388.61   15.39  396.53   15.54  393.48   15.48
  391.05   15.43  373.99   15.09  367.90   14.97  398.36   15.58  383.74   15.29
  392.26   15.46  384.96   15.31  394.09   15.49  375.21   15.12  401.40   15.64
  363.64   14.88  376.43   15.14  391.66   15.45  391.66   15.45  386.17   15.34
  380.08   15.22  404.45   15.70  395.31   15.52  379.47   15.20  403.23   15.67
  378.86   15.19  369.12   14.99  383.13   15.28  401.40   15.64  382.52   15.26
  409.32   15.79  433.07   16.24  453.78   16.63  513.48   17.69  587.79   18.92
  668.80   20.18  791.84   21.96  799.15   22.06  835.69   22.56  805.85   22.16
  774.78   21.72  643.83   19.80  553.07   18.35  479.37   17.09  438.56   16.34
  414.80   15.90  414.19   15.88  404.04   12.71  420.04   12.96  400.44   12.66
  398.44   12.63  402.84   12.69  399.28   15.51  408.31   15.68  393.86   15.40
  386.03   15.25  437.22   16.23  447.46   16.42  529.36   17.85  656.43   19.88
  839.51   22.48 1154.47   26.37 1491.12   29.97 1859.68   33.47 2248.12   36.80
 2298.10   37.20 2255.95   36.86 1943.39   34.21 1501.96   30.08 1130.98   26.10
  790.12   21.81  619.69   19.32  500.45   17.36  428.18   16.06  390.85   15.34
  381.21   15.15  374.59   15.02  420.96   15.92  376.99   15.07  392.65   15.38
  389.64   15.32  393.26   15.39  378.80   15.10  420.96   15.92  392.05   15.37
  380.01   15.13  365.55   14.84  392.05   15.37  374.59   15.02  378.20   15.09
  351.10   14.54  393.86   15.40  385.43   15.24  380.01   15.13  386.63   15.26
  372.78   14.98  387.83   15.28  377.60   15.08  384.82   15.22  380.61   15.14
  378.80   15.10  358.34   12.12  384.99   12.56  369.82   12.31  396.06   12.74
  382.94   12.53  387.41   15.39  394.74   15.53  373.97   15.12  385.58   15.35
  384.97   15.34  367.25   14.98  410.63   15.84  405.13   15.73  399.63   15.63
  421.63   16.05  435.07   16.31  480.29   17.13  544.45   18.24  604.34   19.22
  643.45   19.83  799.88   22.11  965.48   24.29 1327.83   28.48 1864.34   33.75
 2615.34   39.98 3266.12   44.67 3767.80   47.98 4020.16   49.56 3749.47   47.87
 3194.01   44.18 2409.41   38.37 1773.91   32.92 1255.12   27.69  839.60   22.65
  597.01   19.10  464.41   16.85  463.79   16.83  417.35   15.97  378.86   15.22
  386.80   15.37  379.47   15.23  394.13   15.52  361.14   14.86  373.97   15.12
  402.08   15.67  383.13   15.30  374.58   15.13  361.14   14.86  373.36   15.10
  368.47   15.01  358.08   14.79  384.97   15.34  383.13   15.30  403.30   15.70
  376.73   12.43  393.56   12.71  395.20   12.74  397.25   12.77  375.50   12.41
  362.31   15.15  389.55   15.71  409.82   16.11  442.12   16.73  456.69   17.01
  498.50   17.77  582.11   19.20  746.16   21.74  908.31   23.99 1232.62   27.94
 1554.39   31.38 1745.68   33.25 1840.70   34.15 1773.56   33.52 1521.46   31.04
 1249.72   28.14 1012.19   25.32  719.56   21.35  569.44   18.99  476.96   17.38
  436.42   16.63  423.75   16.38  388.92   15.70  391.45   15.75  389.55   15.71
  351.54   14.92  373.08   15.37  426.29   16.43  378.15   15.48  405.38   16.02
  401.58   15.95  383.21   15.58  450.36   16.89  491.53   17.64  499.13   17.78
  520.67   18.16  549.17   18.65  562.47   18.88  547.27   18.62  543.47   18.55
  479.49   17.43  432.62   16.55  407.92   16.07  385.11   15.62  375.61   15.42
  393.35   15.78  361.68   15.14  400.32   15.92  393.98   15.80  379.04   12.80
  368.67   12.62  404.11   13.22  379.47   12.81  390.28   12.99  414.26   16.43
  372.58   15.58  370.62   15.54  378.44   15.70  370.62   15.54  360.85   15.33
  371.28   15.55  347.17   15.04  371.28   15.55  382.35   15.78  392.77   15.99
  377.14   15.67  371.28   15.55  360.20   15.32  386.91   15.88  371.93   15.56
  383.00   15.79  363.46   15.39  354.34   15.19  405.15   16.24  362.81   15.37
  373.23   15.59  379.74   15.73  381.05   15.75  382.35   15.78  383.65   15.81
  341.96   14.92  394.07   16.02  389.51   15.93  399.93   16.14  392.12   15.98
  369.32   15.51  425.99   16.66  401.24   16.17  417.52   16.49  455.95   17.23
  512.62   18.27  558.22   19.07  574.50   19.34  628.56   20.23  592.74   19.65
  566.03   19.20  579.71   19.43  525.65   18.50  464.42   17.39  414.26   16.43
  414.26   16.43  399.28   16.13  381.70   15.77  362.24   12.43  357.12   12.34
  355.84   12.32  381.44   12.76  385.71   12.83  382.25   15.74  390.67   15.91
  379.66   15.68  380.95   15.71  401.68   16.13  393.91   15.98  367.99   15.44
  373.18   15.55  396.50   16.03  380.95   15.71  398.45   16.07  423.06   16.56
  382.25   15.74  357.63   15.22  373.18   15.55  397.15   16.04  382.90   15.75
  410.75   16.31  384.19   15.78  401.68   16.13  390.02   15.90  408.81   16.27
  441.85   16.92  504.70   18.08  573.37   19.27  647.88   20.49  653.06   20.57
  754.78   22.11  804.66   22.83  802.72   22.80  690.64   21.15  639.46   20.35
  608.36   19.85  580.50   19.39  516.36   18.29  493.68   17.88  510.53   18.19
  513.12   18.23  488.50   17.79  459.99   17.26  455.46   17.18  434.08   16.77
  448.33   17.04  421.77   16.53  449.63   17.07  486.56   17.75  548.75   18.86
  596.70   19.66  692.58   21.18  822.50   18.51  898.75   19.35  993.33   20.34
 1049.58   20.91 1108.33   21.49 1235.44   27.24 1524.32   30.26 1859.46   33.42
 2425.23   38.17 3087.09   43.06 3617.42   46.61 3897.90   48.38 3806.01   47.81
 3517.12   45.96 2984.98   42.34 2219.82   36.51 1664.86   31.62 1177.18   26.59
  858.86   22.71  622.22   19.33  490.69   17.17  428.83   16.05  433.63   16.14
  377.18   15.05  370.57   14.92  378.98   15.09  372.97   14.97  372.37   14.95
  352.55   14.55  399.40   15.49  375.98   15.03  375.38   15.02  367.57   14.86
  378.98   15.09  377.18   15.05  385.59   15.22  370.57   14.92  359.76   14.70
  374.77   15.00  365.17   14.81  376.58   15.04  378.38   15.07  411.41   15.72
  430.03   16.07  436.04   16.18  495.50   17.25  600.00   18.98  655.26   19.84
  765.17   21.44  781.98   21.67  780.18   21.65  762.76   21.40  714.11   20.71
  626.97   15.94  536.25   14.74  501.82   14.26  449.17   13.49  407.05   12.84
  383.56   12.46  392.65   15.38  357.72   14.68  354.71   14.62  357.72   14.68
  375.79   15.04  367.96   14.89  385.43   15.24  364.95   14.83  386.63   15.26
  372.78   14.98  375.79   15.04  397.47   15.47  398.68   15.49  387.23   15.27
  480.58   17.01  486.60   17.12  571.51   18.55  700.39   20.54  930.44   23.67
 1105.69   25.80 1301.42   28.00 1501.96   30.08 1603.13   31.07 1584.46   30.89
 1468.23   29.74 1191.81   26.79  965.97   24.12  810.00   22.09  646.79   19.74
  557.66   18.33  474.56   16.91  407.11   15.66  360.73   14.74  414.33   15.80
  387.83   15.28  366.76   14.86  361.34   14.75  361.94   14.76  369.77   14.92
  350.50   14.53  381.21   15.15  356.52   14.65  334.84   14.20  370.37   14.93
  352.91   14.58  384.22   15.21  368.56   14.90  349.29   14.50  376.77   12.38
  362.53   12.15  381.65   12.46  369.85   12.27  365.78   12.20  369.44   12.26
  392.19   15.65  405.31   15.91  409.68   16.00  422.17   16.24  447.15   16.71
  429.04   16.37  425.92   16.31  397.19   15.75  391.57   15.64  388.45   15.58
  383.45   15.47  383.45   15.47  341.61   14.61  369.09   15.18  343.48   14.65
  359.72   14.99  384.70   15.50  394.07   15.69  341.61   14.61  336.61   14.50
  370.96   15.22  366.59   15.13  376.58   15.34  343.48   14.65  369.09   15.18
  346.60   14.71  348.48   14.75  355.35   14.90  364.72   15.09  364.72   15.09
  380.33   15.41  377.83   15.36  372.21   15.25  350.35   14.79  375.33   15.31
  395.94   15.72  384.07   15.49  387.82   15.56  396.57   15.74  397.19   15.75
  382.83   15.46  372.21   15.25  437.16   16.52  458.39   16.92  462.76   17.00
  522.72   18.07  536.46   18.30  726.31   21.30  773.21   18.13  875.70   19.30
 1032.22   20.95 1284.85   23.38 1753.96   27.31 2192.92   37.65 2695.75   41.74
 3268.38   45.96 3599.29   48.23 3586.36   48.14 3571.50   48.04 3224.43   45.65
 2585.88   40.88 2064.95   36.53 1610.60   32.26 1207.95   27.94  895.78   24.06
  661.82   20.68  533.85   18.58  447.25   17.00  407.17   16.22  396.83   16.01
  381.32   15.70  374.86   15.57  376.80   15.61  381.32   15.70  363.87   15.34
  365.16   15.36  369.04   15.44  391.66   15.91  380.03   15.67  371.63   15.50
  339.96   14.82  397.48   16.03  363.87   15.34  374.86   15.57  387.14   15.82
  372.27   15.51  342.54   14.88  374.86   15.57  331.56   14.64  371.63   15.50
  347.71   14.99  366.46   15.39  360.64   15.27  365.81   15.38  365.16   15.36
  370.33   15.47  347.07   14.98  385.20   15.78  368.40   15.43  366.46   15.39
  391.66   15.91  365.16   15.36  377.75   13.02  369.67   12.88  337.37   12.30
  387.62   13.19  435.17   13.97  449.80   17.72  441.42   17.56  510.56   18.88
  533.61   19.31  668.41   21.61  889.12   24.92 1097.26   27.68 1331.24   30.49
 1658.11   34.03 1822.94   35.68 2062.51   37.95 2004.54   37.42 1862.06   36.06
 1607.82   33.51 1481.40   32.17 1176.88   28.67  986.90   26.25  875.15   24.72
  699.14   22.10  675.40   21.72  588.09   20.27  541.30   19.44  496.60   18.62
  484.72   18.40  431.64   17.36  423.96   17.21  419.07   17.11  396.02   16.63
  370.87   16.09  407.89   16.88  379.26   16.28  370.18   16.08  336.65   15.33
  390.43   16.51  385.54   16.41  340.84   15.43  379.26   16.28  373.67   16.16
  408.59   16.89  384.15   16.38  385.54   16.41  363.89   15.94  380.65   16.31
  369.48   16.06  402.30   16.76  424.66   17.22  421.86   17.17  429.54   17.32
  421.16   17.15  442.81   17.59  458.22   14.20  486.37   14.62  563.76   15.75
  610.38   16.38  703.41   21.48  822.18   23.23 1026.90   25.96 1284.78   29.03
 1530.84   31.69 2008.53   36.30 2288.71   38.75 2477.69   40.32 2651.57   41.71
 2572.83   41.09 2206.04   38.05 1919.95   35.49 1578.74   32.19 1244.09   28.57
 1039.37   26.12  799.87   22.91  713.91   21.64  543.96   18.89  538.71   18.80
  566.27   19.28  570.87   19.35  663.39   20.86  782.15   22.65  937.01   24.80
 1218.50   28.28 1574.15   32.14 1986.22   36.10 2535.43   40.79 3180.45   45.68
 3546.59   48.24 3778.87   49.80 3803.15   49.96 3542.65   48.21 3124.02   45.28
 2617.45   41.44 2066.27   36.82 1751.31   33.90 1399.61   30.30 1282.15   29.01
 1099.08   26.85 1080.71   26.63 1024.28   25.92 1053.15   26.29 1048.56   26.23
 1008.53   25.72  957.35   25.06  912.73   24.47  785.43   22.70  675.85   21.06
  622.39   16.36  557.06   15.47  505.48   14.74  449.17   13.89  400.17   13.12
  397.02   15.54  427.42   16.12  406.75   15.73  379.39   15.19  421.95   16.02
  455.39   16.64  471.20   16.93  545.98   18.22  621.37   19.44  657.85   20.00
  763.03   21.54  806.81   22.15  871.87   23.02  859.71   22.86  767.90   21.61
  757.56   21.46  713.79   20.83  572.12   18.65  552.06   18.32  511.32   17.63
  433.50   16.23  420.73   15.99  385.47   15.31  388.51   15.37  359.33   14.78
  338.05   14.34  369.66   14.99  361.15   14.82  362.37   14.84  375.74   15.11
  375.13   15.10  352.64   14.64  349.60   14.58  389.72   15.39  369.05   14.98
  353.85   14.67  336.22   14.30  361.76   14.83  360.54   14.81  350.81   14.60
  353.85   14.67  356.89   14.73  376.35   15.13  316.77   13.88  348.38   14.55
  366.01   14.92  354.46   14.68  351.42   14.62  375.74   15.11  389.28   12.55
  381.59   12.43  367.43   12.19  394.13   12.63  366.62   12.18  356.10   12.00
  375.08   15.17  351.14   14.68  379.37   15.26  364.64   14.96  376.30   15.20
  349.91   14.66  364.64   14.96  365.87   14.99  367.10   15.01  353.59   14.73
  370.17   15.07  377.53   15.22  381.22   15.30  376.30   15.20  386.13   15.40
  418.66   16.03  406.38   15.79  461.02   16.82  486.19   17.28  579.50   18.86
  631.06   19.68  722.53   21.06  790.06   22.02  869.86   23.11  983.43   24.57
  943.52   24.07  929.40   23.89  895.03   23.44  847.76   22.81  728.05   21.14
  669.74   20.28  596.07   19.13  565.38   18.63  492.33   17.38  440.15   16.44
  407.61   15.82  450.58   16.63  445.67   16.54  476.98   17.11  464.09   16.88
  543.28   18.26  524.86   17.95  534.07   18.11  552.49   18.42  569.67   18.70
  495.40   17.44  447.51   16.57  461.02   16.82  410.07   15.87  412.24   12.88
  400.56   12.70  370.77   12.22  386.88   12.48  377.64   14.99  372.88   14.89
  382.99   15.09  332.44   14.06  320.55   13.81  362.77   14.69  353.85   14.51
  367.53   14.78  348.50   14.40  360.39   14.64  365.74   14.75  340.17   14.22
  375.26   14.94  369.91   14.83  327.68   13.96  350.28   14.43  334.82   14.11
  354.45   14.52  354.45   14.52  335.41   14.12  333.63   14.09  327.68   13.96
  335.41   14.12  340.77   14.24  330.06   14.01  329.47   14.00  355.04   14.53
  356.82   14.57  350.28   14.43  355.04   14.53  322.93   13.86  371.10   14.86
  341.36   14.25  335.41   14.12  322.33   13.85  324.12   13.88  363.96   14.71
  338.39   14.19  340.17   14.22  344.34   14.31  320.55   13.81  374.07   14.92
  375.26   14.94  361.58   14.66  409.16   15.60  404.40   15.51  390.13   15.23
  427.59   15.95  465.06   16.63  529.88   17.75  543.41   14.86  598.64   15.59
  657.12   16.34  783.84   17.84  804.52   22.18  931.07   23.86 1024.61   25.03
 1099.19   25.92 1241.63   27.55 1356.56   28.80 1418.92   29.45 1358.40   28.82
 1264.86   27.81 1199.45   27.08 1065.57   25.52  933.52   23.89  794.13   22.03
  726.27   21.07  618.68   19.45  531.87   18.03  498.85   17.46  450.56   16.60
  412.04   15.87  408.99   15.81  355.19   14.74  364.97   14.94  338.07   14.38
  357.02   14.77  373.53   15.11  340.52   14.43  379.03   15.22  374.75   15.14
  351.52   14.66  378.42   15.21  352.13   14.67  376.59   15.17  377.81   15.20
  377.81   15.20  416.93   15.97  445.06   16.49  495.80   17.41  515.36   17.75
  531.25   18.02  514.14   17.73  560.60   18.51  544.09   18.24  559.99   18.50
  513.53   17.72  498.24   17.45  517.19   17.78  462.17   16.81  445.67   16.51
  405.32   15.74  409.45   12.88  401.34   12.76  416.74   13.00  365.26   12.17
  383.50   12.47  393.23   12.63  390.88   15.57  415.70   16.06  425.00   16.24
  477.12   17.21  548.47   18.45  580.74   18.98  617.96   19.58  620.44   19.62
  670.70   20.40  675.04   20.47  623.55   19.67  624.79   19.69  617.34   19.57
  511.87   17.82  488.29   17.41  497.60   17.57  431.83   16.37  388.40   15.52
  412.60   16.00  392.12   15.60  387.16   15.50  330.70   14.32  358.00   14.90
  354.89   14.84  346.83   14.67  353.03   14.80  372.27   15.20  365.44   15.06
  347.45   14.68  369.78   15.15  344.97   14.63  346.83   14.67  354.27   14.83
  356.13   14.86  372.89   15.21  359.24   14.93  370.40   15.16  366.68   15.08
  362.34   14.99  403.91   15.83  392.12   15.60  410.73   15.96  399.57   15.75
  433.69   16.40  461.61   16.92  485.81   17.36  520.55   17.97  512.49   17.83
  577.52   15.39  605.39   15.75  653.35   16.36  731.63   17.32  768.52   17.75
  784.10   17.93  898.13   23.27  860.76   22.78  885.47   23.10  847.50   22.60
  890.90   23.17  796.26   21.91  722.72   20.87  714.29   20.75  661.84   19.97
  579.26   18.69  557.56   18.33  512.96   17.58  556.96   18.32  485.83   17.11
  523.81   17.77  542.50   18.08  537.67   18.00  650.99   19.81  665.46   20.03
  751.05   21.28  791.44   21.84  855.33   22.71  827.61   22.34  831.22   22.38
  848.70   22.62  758.89   21.39  725.74   20.92  660.04   19.95  611.81   19.20
  546.71   18.15  506.93   17.48  514.17   17.60  458.71   16.63  459.31   16.64
  422.54   15.96  393.01   15.39  438.22   16.25  434.60   16.19  458.11   16.62
  479.20   17.00  447.26   16.42  455.70   16.57  456.90   16.60  452.08   16.51
  445.45   16.39  482.22   17.05  485.23   17.10  492.77   13.97  556.94   14.85
  578.33   15.14  635.77   15.87  751.04   17.25  808.08   17.89  958.37   23.79
 1155.00   26.12 1313.85   27.85 1537.64   30.13 1626.81   30.99 1799.23   32.60
 1842.93   32.99 1832.89   32.90 1838.20   32.95 1727.78   31.94 1543.55   30.19
 1395.93   28.71 1224.68   26.89 1044.58   24.84  867.43   22.63  800.12   21.74
  629.47   19.28  576.91   18.46  513.73   17.42  487.75   16.97  415.71   15.67
  400.35   15.38  367.29   14.73  378.51   14.95  356.07   14.50  338.94   14.15
  342.49   14.22  385.59   15.09  341.30   14.20  361.38   14.61  333.63   14.04
  323.00   13.81  339.53   14.16  338.35   14.13  352.52   14.43  322.41   13.80
  353.11   14.44  350.75   14.39  340.71   14.18  346.62   14.31  353.11   14.44
  330.68   13.97  348.39   14.34  345.44   14.28  346.03   14.29  353.11   14.44
  341.90   14.21  336.58   14.10  351.93   14.42  344.86   11.66  344.47   11.65
  351.56   11.77  343.29   11.63  337.37   11.53  342.26   14.15  336.99   14.04
  348.11   14.27  349.86   14.31  358.05   14.47  343.43   14.17  314.76   13.57
  341.67   14.14  342.26   14.15  353.96   14.39  316.51   13.61  321.78   13.72
  357.47   14.46  345.77   14.22  336.40   14.03  369.17   14.70  358.05   14.47
  371.51   14.74  330.55   13.91  377.94   14.87  384.96   15.01  381.45   14.94
  389.06   15.09  424.75   15.76  456.34   16.34  444.05   16.12  490.86   16.95
  535.91   17.71  575.69   18.35  638.88   19.33  727.80   20.64  829.60   22.03
  960.66   23.71 1063.62   24.95 1241.48   26.95 1404.71   28.67 1483.11   29.46
 1605.38   30.65 1651.60   31.08 1699.58   31.53 1710.11   31.63 1655.11   31.12
 1556.82   30.18 1402.95   28.65 1330.41   27.90 1149.63   25.93 1040.81   24.68
  873.48   22.61  834.13   18.22  732.70   17.07  649.56   16.07  593.48   15.36
  576.37   15.14  533.82   18.00  562.33   18.47  595.69   19.01  599.94   19.08
  633.91   19.61  653.93   19.92  649.68   19.85  695.18   20.54  655.75   19.94
  650.89   19.87  689.72   20.45  604.19   19.14  614.50   19.31  569.00   18.58
  530.18   17.93  522.29   17.80  499.85   17.41  445.25   16.43  422.20   16.00
  417.35   15.91  374.28   15.07  378.53   15.15  367.61   14.93  362.15   14.82
  350.02   14.57  339.10   14.34  353.65   14.65  350.62   14.58  356.08   14.70
  351.23   14.60  350.02   14.57  346.98   14.51  377.31   15.13  356.08   14.70
  363.36   14.85  370.03   14.98  362.75   14.83  360.33   14.78  352.44   14.62
  360.93   14.80  385.81   15.30  396.72   15.51  429.48   16.14  432.51   16.20
  425.24   16.06  456.78   16.65  554.44   18.34  585.99   18.85  606.01   19.17
  663.63   20.06  747.31   17.34  905.78   19.09  972.95   19.78 1080.34   20.85
 1204.22   22.01 1335.16   28.51 1405.18   29.25 1369.25   28.87 1382.65   29.01
 1440.49   29.61 1290.72   28.03 1257.84   27.67 1126.33   26.19 1042.92   25.20
  952.82   24.09  850.53   22.76  746.42   21.32  682.50   20.38  583.26   18.84
  542.47   18.17  478.54   17.07  434.09   16.26  421.31   16.02  386.61   15.34
  365.91   14.93  373.21   15.07  389.04   15.39  344.60   14.48  355.56   14.71
  395.13   15.51  362.86   14.86  375.04   15.11  403.65   15.68  390.26   15.41
  386.61   15.34  403.65   15.68  422.53   16.04  437.14   16.31  485.24   17.19
  495.59   17.37  499.85   17.44  589.35   18.94  588.74   18.93  667.88   20.16
  658.75   20.03  680.06   20.35  692.85   20.54  658.75   20.03  709.89   20.79
  700.15   20.65  694.06   20.56  671.54   20.22  665.45   20.13  645.36   19.82
  659.14   16.16  685.69   16.49  704.72   16.71  767.74   17.44  829.91   21.98
  878.80   22.62 1002.76   24.16 1011.49   24.26 1101.70   25.32 1226.25   26.71
 1242.54   26.89 1218.68   26.63 1277.46   27.27 1285.03   27.35 1217.52   26.62
 1173.29   26.13 1084.82   25.13 1055.73   24.79  985.89   23.95  906.74   22.97
  822.93   21.88  741.45   20.77  662.30   19.63  642.51   19.34  593.63   18.59
  540.08   17.73  511.57   17.25  483.63   16.78  462.68   16.41  417.87   15.59
  399.83   15.25  413.79   15.52  354.43   14.36  397.50   15.21  348.61   14.24
  355.01   14.37  367.82   14.63  358.50   14.44  326.49   13.78  348.03   14.23
  357.92   14.43  358.50   14.44  368.98   14.65  372.47   14.72  366.07   14.60
  373.05   14.73  380.62   14.88  385.28   14.97  406.23   15.38  411.47   15.47
  450.46   16.19  474.32   16.61  480.14   16.72  508.66   17.21  564.59   15.00
  535.09   14.61  555.02   14.88  558.61   14.92  624.40   15.78  552.61   18.19
  597.52   18.91  589.73   18.79  573.57   18.53  549.02   18.13  540.04   17.98
  535.25   17.90  523.87   17.71  523.27   17.70  537.05   17.93  553.21   18.20
  588.53   18.77  593.32   18.85  612.48   19.15  690.32   20.33  699.30   20.46
  802.87   21.92  894.48   23.14 1000.45   24.47 1117.20   25.86 1240.53   27.25
 1374.05   28.68 1576.41   30.72 1780.57   32.65 2086.51   35.34 2303.25   37.13
 2485.26   38.57 2652.30   39.85 2802.57   40.96 2840.89   41.24 2878.61   41.51
 2798.38   40.93 2680.44   40.06 2688.82   40.12 2452.93   38.32 2203.86   36.32
 1930.85   34.00 1751.23   32.38 1529.71   30.26 1356.68   28.50 1141.75   26.15
 1019.01   24.70  859.75   22.69  797.49   21.85  665.17   19.96  644.81   19.65
  543.03   18.03  472.38   16.82  436.46   16.17  459.23   13.73  402.96   12.87
  372.15   12.36  402.96   12.87  397.21   12.77  406.05   16.16  369.37   15.42
  391.25   15.87  424.07   16.52  477.48   17.53  483.27   17.63  487.77   17.72
  497.43   17.89  519.31   18.28  508.37   18.09  555.34   18.90  589.45   19.48
  566.92   19.10  577.86   19.28  565.64   19.08  550.19   18.82  575.93   19.25
  539.25   18.63  501.93   17.97  487.13   17.71  514.80   18.20  477.48   17.53
  463.32   17.27  438.87   16.81  413.77   16.32  446.59   16.95  384.17   15.72
  386.10   15.76  365.51   15.34  364.22   15.31  370.66   15.44  398.97   16.02
  380.31   15.64  385.46   15.75  350.06   15.01  359.07   15.20  374.52   15.52
  370.66   15.44  379.02   15.62  373.87   15.51  367.44   15.38  403.47   16.11
  421.49   16.47  393.18   15.91  436.94   16.77  412.48   16.29  440.15   16.83
  478.76   17.55  488.81   14.24  495.02   14.33  531.92   14.85  534.83   14.89
  567.16   15.33  624.38   16.09  586.22   19.01  635.54   19.79  663.89   20.23
  662.66   20.21  668.21   20.30  660.19   20.17  666.97   20.28  666.97   20.28
  675.60   20.41  641.70   19.89  636.77   19.81  556.63   18.52  562.80   18.63
  573.89   18.81  554.17   18.48  567.11   18.70  572.66   18.79  571.43   18.77
  596.70   19.18  602.25   19.27  660.19   20.17  663.28   20.22  715.06   20.99
  752.66   21.54  805.67   22.29  954.23   24.25 1020.80   25.08 1138.54   26.49
 1264.29   27.92 1433.19   29.72 1491.76   30.32 1570.66   31.12 1592.85   31.33
 1693.33   32.31 1685.93   32.24 1607.03   31.47 1627.37   31.67 1599.63   31.40
 1571.27   31.12 1451.07   29.91 1402.99   29.41 1300.66   28.32 1222.38   27.45
 1101.56   26.06 1002.93   24.86  937.59   24.04  875.94   23.24  779.16   21.92
  681.77   20.50  696.63   16.74  665.66   16.36  639.92   16.04  572.35   15.17
  543.39   14.78  538.33   17.68  487.22   16.82  474.45   16.60  494.77   16.95
  472.71   16.57  514.52   17.29  506.97   17.16  534.84   17.62  581.88   18.38
  592.33   18.55  648.66   19.41  652.15   19.46  674.80   19.80  764.81   21.07
  812.43   21.72  851.34   22.23  864.11   22.40  898.37   22.84  982.00   23.88
  992.45   24.01 1006.39   24.17  947.15   23.45  986.64   23.94  976.77   23.82
  951.22   23.50  918.12   23.09  900.70   22.87  828.69   21.94  774.68   21.21
  742.74   20.77  713.12   20.35  602.79   18.71  584.20   18.42  563.88   18.10
  501.16   17.06  504.65   17.12  473.29   16.58  452.38   16.21  436.12   15.91
  439.02   15.97  400.70   15.25  365.27   14.56  366.43   14.59  381.53   14.89
  361.21   14.48  372.24   14.70  360.05   14.46  345.53   14.17  370.50   14.67
  365.04   11.86  357.33   11.74  375.83   12.04  364.27   11.85  385.31   14.90
  365.73   14.51  401.44   15.21  386.47   14.92  411.23   15.39  411.81   15.40
  416.99   15.50  441.76   15.95  435.42   15.84  408.93   15.35  425.63   15.66
  429.66   15.73  524.12   17.37  500.50   16.98  549.46   17.79  554.64   17.87
  608.21   18.72  651.98   19.38  704.97   20.15  762.56   20.96  837.44   21.96
  886.39   22.59  931.89   23.17  996.40   23.96 1038.44   24.46 1097.77   25.14
 1051.12   24.60 1076.46   24.90 1056.30   24.67 1119.65   25.39 1121.38   25.41
 1074.73   24.88 1073.58   24.87 1062.06   24.73  969.91   23.64  957.24   23.48
  878.91   22.50  768.32   21.04  707.85   20.19  684.81   19.86  653.71   19.40
  614.54   18.81  616.85   18.85  521.81   17.34  562.13   17.99  522.97   17.36
  491.29   16.82  514.33   17.21  476.31   16.56  488.28   14.08  519.13   14.52
  495.99   14.19  539.42   14.80  522.37   14.56  548.35   14.92  600.09   19.37
  630.10   19.85  675.11   20.54  663.23   20.36  768.87   21.92  780.75   22.09
  867.64   23.29  897.64   23.69  952.65   24.40  948.27   24.35 1004.53   25.06
 1028.29   25.35 1067.04   25.83 1075.17   25.92 1055.16   25.68 1115.17   26.40
 1090.17   26.10 1081.42   26.00 1078.92   25.97 1046.41   25.58 1060.17   25.74
  998.28   24.98  962.03   24.52  878.26   23.43  860.13   23.19  858.88   23.17
  838.88   22.90  824.50   22.70  840.13   22.92  840.13   22.92  850.76   23.06
  900.77   23.73  908.89   23.84  969.53   24.62  968.90   24.61  981.40   24.77
 1072.67   25.89 1132.68   26.61 1182.06   27.18 1197.06   27.35 1218.32   27.60
 1230.82   27.74 1303.33   28.54 1225.19   27.67 1230.82   27.74 1300.20   28.51
 1228.94   27.72 1231.44   27.74 1163.31   26.97 1117.05   26.42 1049.54   25.61
 1040.79   25.51  978.28   24.73  927.02   24.07  756.01   32.24  699.66   31.01
  662.54   30.18  581.44   28.27  655.67   30.02  505.84   26.37  519.59   26.72
  470.10   25.42  481.10   25.72  448.11   24.82  431.62   24.36  430.24   24.32
  417.87   23.97  404.12   23.57  406.87   23.65  360.14   22.25  401.37   23.49
  423.37   24.12  389.00   23.12  382.13   22.92  378.01   22.79  375.26   22.71
  434.36   24.43  439.86   24.59  430.24   24.32  437.11   24.51  468.73   25.38
  441.24   24.63  471.48   25.46  487.97   25.90  505.84   26.37  474.23   25.53
  533.33   27.08  570.45   28.00  520.96   26.76  538.83   27.22  542.96   27.32
  591.07   28.50  511.34   26.51  544.33   27.35  538.83   27.22  538.83   27.22
  516.84   26.65  531.96   27.04  509.97   26.48  520.96   26.76  536.08   27.15
  504.47   26.33  504.47   26.33  497.59   26.15  509.97   26.48  415.12   23.89
  415.12   23.89                                                                