                                                                                
BANK 1 2431 487 CONST  602.500    5.000 0 0 ESD                                 
  443.69   22.44  451.63   22.64  445.96   22.50  472.06   23.14  464.11   22.95
  476.60   23.26  418.72   21.80  490.21   23.59  466.38   23.00  481.13   23.37
  464.11   22.95  480.00   23.34  444.82   22.47  470.92   23.12  472.06   23.14
  469.79   23.09  473.19   23.17  450.50   22.61  431.21   22.12  470.92   23.12
  440.28   22.35  445.96   22.50  477.73   23.28  457.30   22.78  445.96   22.50
  435.74   22.24  477.73   23.28  520.85   24.31  540.14   24.76  516.31   24.21
  468.65   23.06  549.22   24.96  543.55   24.84  509.50   24.04  595.74   26.00
  544.68   24.86  605.96   26.22  625.25   26.64  721.70   28.62  672.91   27.63
  627.52   26.68  687.66   27.93  718.30   28.55  820.43   30.51  780.71   29.76
  854.47   31.14  821.56   30.53  888.51   31.75  969.08   33.16 1064.40   34.75
 1199.43   36.89 1273.19   38.01 1435.64   28.49 1484.81   28.97 1614.24   30.21
 1823.37   32.10 2148.93   34.85 2666.10   38.82 3179.31   42.39 3200.79   42.53
 3538.22   44.72 3426.31   44.01 3352.27   43.53 3185.53   42.43 2716.97   39.19
 1895.15   32.73 1287.55   26.98  961.42   23.31  707.64   20.00  560.69   17.80
  473.08   16.35  438.04   15.73  469.69   16.29  446.52   15.89  466.86   16.24
  453.86   16.02  452.17   15.99  435.21   15.68  466.30   16.23  440.86   15.79
  474.78   16.38  447.65   15.91  439.73   15.77  444.82   15.86  436.91   15.71
  455.00   16.04  453.30   16.01  464.04   16.20  422.78   15.46  437.47   15.72
  404.13   15.11  438.04   15.73  444.82   15.86  445.39   15.87  417.69   15.37
  404.69   15.12  409.21   15.21  442.56   15.82  434.65   15.67  429.00   15.57
  441.43   15.80  422.78   15.46  429.56   15.58  441.43   15.80  442.56   15.82
  415.25   12.44  422.33   12.55  426.80   12.61  440.97   12.82  429.41   12.65
  455.50   13.03  411.52   12.39  417.85   12.48  458.51   15.95  443.52   15.69
  403.55   14.97  418.54   15.24  412.99   15.14  409.10   15.07  414.10   15.16
  421.32   15.29  395.23   14.81  417.99   15.23  436.86   15.57  404.66   14.99
  428.53   15.42  404.11   14.98  419.65   15.26  409.66   15.08  412.99   15.14
  417.43   15.22  419.65   15.26  420.21   15.27  399.11   14.88  425.76   15.37
  424.09   15.34  457.40   15.93  446.29   15.74  410.77   15.10  414.65   15.17
  409.66   15.08  409.10   15.07  430.75   15.46  414.10   15.16  427.98   15.41
  437.41   15.58  407.99   15.05  409.66   15.08  441.85   15.66  404.11   14.98
  425.20   15.36  409.66   15.08  388.57   14.69  398.00   14.86  424.65   15.35
  384.68   14.61  387.45   14.67  388.57   14.69  397.45   14.85  407.44   15.04
  400.37   12.19  414.11   12.40  416.71   12.44  417.46   12.45  420.80   12.50
  416.18   15.19  411.75   15.11  391.80   14.74  385.70   14.62  398.45   14.86
  402.88   14.94  438.90   15.60  431.70   15.47  379.61   14.50  411.19   15.10
  404.54   14.97  411.75   15.11  416.74   15.20  408.98   15.05  406.76   15.01
  400.67   14.90  417.29   15.21  416.74   15.20  428.37   15.41  426.16   15.37
  382.38   14.56  394.57   14.79  399.00   14.87  405.10   14.98  411.19   15.10
  418.95   15.24  431.14   15.46  401.77   14.92  404.54   14.97  420.62   15.27
  429.48   15.43  400.67   14.90  387.92   14.66  408.98   15.05  392.35   14.75
  425.05   15.35  430.59   15.45  390.69   14.71  396.79   14.83  417.84   15.22
  389.58   14.69  395.68   14.81  427.27   15.39  406.21   15.00  419.51   15.25
  385.15   14.61  379.05   14.49  399.56   14.88  390.69   14.71  392.91   14.76
  418.08   12.43  377.04   11.81  415.86   12.40  400.73   14.95  409.66   15.12
  406.31   15.06  424.72   15.40  383.42   14.63  440.91   15.69  414.12   15.20
  411.33   15.15  404.07   15.02  400.73   14.95  402.96   15.00  424.17   15.39
  424.17   15.39  395.70   14.86  417.47   15.26  415.79   15.23  415.79   15.23
  430.86   15.51  426.40   15.43  490.58   16.55  451.51   15.87  467.70   16.16
  479.98   16.37  533.56   17.26  535.79   17.29  582.67   18.03  647.97   19.02
  696.53   19.72  781.92   20.89  886.28   22.24 1106.74   24.85 1337.24   27.32
 1604.02   29.92 1883.63   32.42 2091.25   34.16 2202.32   35.06 2132.55   34.50
 1917.68   32.72 1617.97   30.05 1171.48   25.57  881.82   22.18  625.09   18.68
  519.60   17.03  426.40   15.43  430.86   15.51  406.86   15.07  399.61   14.93
  424.17   15.39  395.14   14.85  396.26   14.87  402.96   15.00  411.92   12.60
  442.39   13.06  450.10   13.18  428.89   12.86  450.71   16.27  464.23   16.52
  510.65   17.32  585.28   18.55  579.40   18.45  639.93   19.39  664.61   19.76
  635.82   19.33  654.62   19.61  645.81   19.48  668.72   19.82  577.64   18.42
  632.88   19.28  639.93   19.39  702.22   20.31  793.30   21.59  988.98   24.11
 1134.71   25.82 1356.84   28.24 1735.86   31.94 1936.24   33.73 2164.24   35.66
 2262.96   36.47 2084.91   35.00 1762.89   32.19 1383.28   28.51 1026.59   24.56
  709.27   20.42  548.85   17.96  444.84   16.17  413.69   15.59  420.74   15.72
  404.88   15.42  407.82   15.48  415.45   15.62  402.53   15.38  372.56   14.80
  403.70   15.40  395.48   15.24  376.67   14.88  403.70   15.40  403.70   15.40
  418.98   15.69  405.46   15.44  400.18   15.33  412.52   15.57  393.71   15.21
  360.81   14.56  397.83   15.29  417.73   12.87  422.10   12.94  410.99   12.77
  396.71   12.54  389.57   12.43  389.57   12.43  388.89   15.49  398.77   15.69
  372.84   15.17  382.72   15.37  421.60   16.13  416.05   16.03  397.53   15.66
  420.99   16.12  425.93   16.21  377.16   15.26  419.14   16.08  447.53   16.62
  426.54   16.23  447.53   16.62  462.35   16.89  495.06   17.48  530.86   18.10
  553.70   18.49  651.85   20.06  686.42   20.58  851.85   22.93  854.94   22.97
  880.25   23.31  819.14   22.49  766.67   21.75  653.09   20.08  582.10   18.96
  520.37   17.92  425.93   16.21  404.94   15.81  404.94   15.81  395.06   15.62
  382.72   15.37  392.59   15.57  417.90   16.06  417.90   16.06  408.64   15.88
  398.15   15.68  396.91   15.65  374.07   15.20  364.81   15.01  377.16   15.26
  390.12   15.52  390.12   15.52  418.52   16.07  391.36   15.54  393.21   15.58
  446.91   16.61  420.16   13.34  411.27   13.20  442.19   13.69  437.10   13.61
  468.87   14.09  493.43   14.46  556.41   18.89  599.36   19.60  717.95   21.45
  778.21   22.33  859.62   23.47  902.56   24.05  958.33   24.79  966.03   24.88
  862.18   23.51  722.44   21.52  625.64   20.03  533.33   18.49  433.33   16.67
  432.69   16.65  392.31   15.86  412.18   16.25  421.15   16.43  388.46   15.78
  410.90   16.23  401.92   16.05  405.77   16.13  391.67   15.85  396.15   15.94
  412.82   16.27  404.49   16.10  394.23   15.90  373.72   15.48  397.44   15.96
  410.26   16.22  383.97   15.69  392.95   15.87  383.33   15.68  388.46   15.78
  371.79   15.44  396.79   15.95  378.85   15.58  397.44   15.96  372.44   15.45
  416.03   16.33  403.21   16.08  374.36   15.49  389.10   15.79  396.15   15.94
  408.33   16.18  403.85   16.09  375.64   15.52  388.46   15.78  409.62   16.20
  415.38   16.32  390.38   12.69  364.80   12.27  375.53   12.45  420.92   13.18
  373.38   15.26  403.93   15.87  388.34   15.56  383.36   15.46  411.41   16.01
  383.98   15.47  417.64   16.13  437.59   16.52  440.70   16.57  465.64   17.04
  504.29   17.73  557.27   18.64  552.91   18.56  587.81   19.14  609.63   19.49
  635.81   19.91  590.31   19.18  528.60   18.15  466.88   17.06  410.78   16.00
  399.56   15.78  405.80   15.90  402.68   15.84  374.01   15.27  388.34   15.56
  387.72   15.55  408.29   15.95  399.56   15.78  410.78   16.00  372.14   15.23
  403.93   15.87  385.85   15.51  400.81   15.81  377.12   15.33  372.76   15.24
  349.07   14.75  368.40   15.15  378.37   15.36  362.16   15.03  393.95   15.67
  388.97   15.57  383.36   15.46  344.71   14.66  393.95   15.67  385.85   15.51
  386.47   15.52  432.60   16.42  375.25   15.29  388.34   15.56  382.86   12.45
  392.18   12.61  379.22   12.40  397.45   12.69  406.77   12.84  365.32   14.54
  412.22   15.45  383.85   14.91  377.48   14.78  414.53   15.49  388.48   15.00
  374.58   14.73  401.79   15.25  382.69   14.88  408.74   15.38  382.11   14.87
  374.00   14.72  379.79   14.83  378.64   14.81  374.58   14.73  383.27   14.90
  402.37   15.26  410.48   15.42  379.22   14.82  395.43   15.13  371.69   14.67
  386.16   14.95  365.32   14.54  412.22   15.45  408.74   15.38  389.06   15.01
  373.43   14.70  404.69   15.31  371.11   14.66  372.27   14.68  394.85   15.12
  383.27   14.90  372.27   14.68  386.74   14.96  391.95   15.06  438.85   15.94
  386.74   14.96  363.00   14.50  399.48   15.21  397.16   15.16  393.11   15.09
  376.32   14.76  356.64   14.37  383.85   14.91  375.74   14.75  386.74   14.96
  376.32   14.76  362.43   14.49  357.22   14.38  380.95   14.85  375.38   12.10
  370.70   12.03  377.33   12.13  383.57   12.23  381.62   12.20  391.88   15.19
  380.11   14.96  403.06   15.40  361.87   14.59  361.87   14.59  374.82   14.85
  377.76   14.91  388.94   15.13  371.87   14.79  350.69   14.36  378.93   14.93
  407.18   15.48  391.29   15.17  388.94   15.13  381.29   14.98  388.35   15.12
  365.40   14.66  354.81   14.45  378.93   14.93  377.76   14.91  370.11   14.76
  371.29   14.78  360.69   14.57  403.06   15.40  401.88   15.38  375.40   14.86
  408.94   15.51  435.42   16.01  478.96   16.79  546.63   17.93  656.08   19.65
  789.06   21.55  977.93   23.99 1146.81   25.98 1313.33   27.80 1330.98   27.98
 1262.14   27.25 1143.87   25.94  937.92   23.49  766.11   21.23  561.34   18.17
  450.72   16.29  436.01   16.02  407.18   15.48  398.94   15.32  381.88   14.99
  358.93   14.53  383.64   15.02  383.45   12.21  377.23   12.11  400.16   12.47
  388.89   12.29  391.22   12.33  387.72   15.06  395.32   15.20  417.54   15.63
  440.94   16.06  530.41   17.61  611.70   18.91  740.35   20.81  851.46   22.31
  987.72   24.03 1014.62   24.36 1064.91   24.96  863.74   22.47  803.51   21.68
  652.05   19.53  553.80   18.00  468.42   16.55  421.64   15.70  395.91   15.22
  402.92   15.35  404.68   15.38  378.36   14.87  390.06   15.10  348.54   14.28
  354.39   14.40  367.84   14.67  397.66   15.25  369.59   14.70  393.57   15.17
  373.68   14.78  353.80   14.38  383.04   14.97  391.23   15.13  369.59   14.70
  401.17   15.32  399.42   15.28  405.85   15.41  422.81   15.72  430.99   15.88
  428.65   15.83  494.74   17.01  488.89   16.91  581.87   18.45  659.06   19.63
  716.37   20.47  749.12   20.93  853.80   22.34  947.37   23.54 1208.77   26.59
 1457.89   29.20 1777.78   26.36 2073.68   28.47 2351.22   30.32 2274.60   29.82
 2025.21   28.14 1637.06   25.30 1364.10   28.14  971.70   23.75  695.40   20.09
  530.55   17.55  455.67   16.26  404.59   15.32  399.36   15.23  384.85   14.95
  372.66   14.71  400.52   15.25  376.14   14.78  388.33   15.01  396.46   15.17
  371.50   14.68  377.88   14.81  411.55   15.46  394.14   15.13  435.93   15.91
  414.45   15.51  457.41   16.29  514.29   17.28  620.52   18.98  869.54   22.47
 1260.19   27.05 1883.04   33.06 3028.88   41.93 4719.78   52.34 7115.37   64.27
10089.68   76.5312958.35   86.7315281.38   94.1815513.57   94.9014165.72   90.68
11677.84   82.33 8324.48   69.51 5411.70   56.05 3089.83   42.35 1577.71   30.26
  935.71   23.31  675.66   19.80  633.87   19.18  686.69   19.97  789.44   21.41
  821.94   21.84  856.77   22.30  868.38   22.45  847.48   22.18  913.80   19.43
 1003.82   20.36 1230.10   22.54 1579.85   25.54 1851.55   27.65 2039.43   29.02
 2007.43   36.02 1906.61   35.10 1608.66   32.24 1264.18   28.58  890.61   23.99
  640.49   20.35  533.20   18.56  453.71   17.12  428.50   16.64  416.87   16.41
  419.45   16.47  387.78   15.83  409.76   16.27  391.66   15.91  385.20   15.78
  383.91   15.75  376.80   15.61  394.25   15.96  398.77   16.05  376.15   15.59
  388.43   15.84  380.68   15.69  422.69   16.53  464.05   17.32  494.43   17.88
  475.04   17.52  501.53   18.00  522.22   18.37  568.75   19.17  533.85   18.58
  520.92   18.35  530.62   18.52  501.53   18.00  463.40   17.31  444.01   16.94
  434.32   16.75  375.50   15.58  381.32   15.70  360.64   15.27  364.52   15.35
  365.16   15.36  387.14   15.82  395.54   15.99  399.42   16.07  386.49   15.80
  352.88   15.10  376.15   15.59  356.12   15.17  385.20   15.78  409.39   13.10
  419.02   13.25  468.05   14.00  468.89   14.02  487.32   14.29  492.12   17.89
  475.22   17.58  459.61   17.29  414.76   16.42  432.31   16.76  380.30   15.72
  384.20   15.80  364.05   15.38  377.05   15.66  371.20   15.53  366.00   15.43
  401.11   16.15  357.55   15.25  360.15   15.30  338.70   14.84  366.65   15.44
  346.50   15.01  363.40   15.37  373.80   15.59  369.25   15.49  362.10   15.34
  369.90   15.51  368.60   15.48  368.60   15.48  367.30   15.45  369.90   15.51
  375.75   15.63  353.00   15.15  363.40   15.37  353.65   15.16  385.50   15.83
  399.80   16.12  417.36   16.47  427.76   16.68  490.82   17.86  495.37   17.95
  556.48   19.02  642.29   20.43  694.30   21.25  717.05   21.59  661.79   20.74
  636.44   20.34  561.03   19.10  481.72   17.70  424.51   16.61  416.06   16.45
  397.20   16.07  390.70   15.94  399.80   16.12  370.82   12.59  362.28   12.44
  359.71   12.40  385.35   12.83  356.33   14.73  398.96   15.59  372.16   15.06
  391.66   15.45  388.00   15.37  387.39   15.36  388.00   15.37  396.53   15.54
  379.47   15.20  388.61   15.39  370.95   15.03  366.07   14.93  368.51   14.98
  370.95   15.03  361.81   14.85  370.34   15.02  367.90   14.97  359.37   14.80
  382.52   15.26  363.03   14.87  361.20   14.83  348.41   14.57  347.19   14.54
  350.85   14.62  347.80   14.55  352.06   14.64  369.73   15.01  361.20   14.83
  371.55   15.04  372.16   15.06  365.46   14.92  366.68   14.94  344.75   14.49
  386.17   15.34  376.43   15.14  411.76   15.84  487.28   17.23  575.61   18.72
  632.86   19.63  760.16   21.52  809.50   22.21  870.41   23.03  842.39   22.65
  762.60   21.55  694.38   20.57  590.22   18.96  511.65   17.65  412.36   15.85
  380.08   15.22  378.25   15.18  368.84   12.15  372.04   12.20  348.43   11.81
  346.43   11.77  369.64   12.16  348.09   14.48  374.59   15.02  373.38   15.00
  367.36   14.87  405.90   15.63  426.38   16.02  480.58   17.01  571.51   18.55
  722.67   20.86  962.96   24.08 1332.73   28.33 1755.50   32.51 2080.70   35.40
 2335.44   37.50 2234.27   36.68 1992.17   34.64 1637.46   31.40 1208.07   26.97
  896.72   23.24  657.63   19.90  501.05   17.37  399.28   15.51  392.65   15.38
  388.44   15.29  361.94   14.76  389.64   15.32  355.92   14.64  358.33   14.69
  348.09   14.48  358.33   14.69  378.80   15.10  367.36   14.87  368.56   14.90
  364.95   14.83  360.73   14.74  363.14   14.79  363.14   14.79  348.69   14.49
  354.11   14.60  374.59   15.02  369.17   14.91  331.23   14.12  371.57   14.96
  330.62   14.11  368.56   14.90  334.84   14.20  378.80   15.10  375.19   15.03
  340.26   14.31  362.44   12.19  370.64   12.33  352.19   12.02  345.63   11.90
  363.26   12.20  340.97   14.43  362.36   14.88  355.64   14.74  345.86   14.54
  355.03   14.73  350.75   14.64  343.42   14.49  380.69   15.25  369.69   15.03
  401.47   15.66  428.96   16.19  461.96   16.80  501.68   17.51  532.23   18.03
  633.67   19.68  756.49   21.50  933.70   23.89 1256.34   27.71 1698.75   32.22
 2256.03   37.13 3036.97   43.08 3580.20   46.77 3986.56   49.36 3809.96   48.25
 3355.33   45.28 2743.05   40.94 1990.22   34.87 1423.16   29.49  931.87   23.86
  691.11   20.55  482.74   17.18  386.80   15.37  377.64   15.19  376.41   15.17
  375.80   15.15  377.64   15.19  336.08   14.33  370.91   15.05  348.92   14.60
  383.75   15.31  355.03   14.73  350.75   14.64  354.41   14.72  360.53   14.84
  372.75   15.09  348.92   14.60  339.14   14.40  363.58   14.91  356.86   14.77
  364.42   12.23  359.91   12.15  367.29   12.28  390.27   12.66  379.60   12.48
  409.18   16.10  417.42   16.26  462.39   17.11  468.73   17.23  552.34   18.70
  568.17   18.97  677.12   20.71  776.56   22.18  935.55   24.34 1234.52   27.96
 1468.88   30.50 1731.12   33.11 1835.00   34.09 1748.22   33.28 1568.96   31.52
 1259.22   28.24 1016.63   25.38  770.23   22.09  589.07   19.32  477.59   17.39
  441.49   16.72  381.95   15.55  354.08   14.98  369.91   15.31  345.84   14.80
  345.84   14.80  371.18   15.33  356.61   15.03  357.88   15.06  364.85   15.20
  359.14   15.08  405.38   16.02  436.42   16.63  419.32   16.30  443.39   16.76
  508.63   17.95  535.23   18.41  535.87   18.42  519.40   18.14  495.33   17.71
  457.32   17.02  426.92   16.44  406.02   16.04  403.48   15.99  374.35   15.40
  355.34   15.00  361.05   15.12  364.21   15.19  362.31   15.15  362.61   12.52
  364.78   12.56  401.94   13.18  380.33   12.82  425.28   13.56  423.38   16.61
  427.29   16.68  469.63   17.49  468.98   17.48  404.49   16.23  422.08   16.58
  403.84   16.22  398.63   16.11  364.11   15.40  366.72   15.46  372.58   15.58
  385.60   15.85  384.30   15.82  368.67   15.50  394.07   16.02  378.44   15.70
  374.53   15.62  371.28   15.55  338.06   14.84  354.34   15.19  370.62   15.54
  375.83   15.65  354.99   15.21  356.29   15.23  364.11   15.40  393.42   16.01
  359.55   15.30  343.92   14.97  371.93   15.56  368.02   15.48  369.32   15.51
  388.21   15.90  399.28   16.13  386.26   15.86  402.54   16.19  442.27   16.97
  477.45   17.63  565.38   19.19  584.92   19.52  637.03   20.37  620.09   20.10
  600.55   19.78  571.24   19.29  511.32   18.25  489.82   17.86  457.91   17.27
  448.79   17.10  464.42   17.39  427.29   16.68  468.05   14.13  478.29   14.29
  458.24   13.98  488.11   14.43  453.12   13.90  410.11   16.30  454.16   17.15
  391.97   15.94  388.08   15.86  363.46   15.35  355.04   15.17  382.90   15.75
  394.56   15.99  366.70   15.41  393.26   15.96  366.70   15.41  365.40   15.39
  390.67   15.91  351.15   15.08  364.11   15.36  389.37   15.88  355.04   15.17
  359.57   15.26  366.05   15.40  396.50   16.03  347.91   15.01  422.42   16.54
  450.92   17.09  491.74   17.85  572.72   19.26  622.61   20.08  743.12   21.94
  790.41   22.63  815.68   22.99  826.04   23.13  784.58   22.55  708.13   21.42
  656.95   20.63  581.79   19.41  519.60   18.35  496.92   17.94  497.57   17.95
  513.77   18.24  465.18   17.36  428.25   16.66  445.09   16.98  395.21   16.00
  410.75   16.31  399.09   16.08  423.71   16.57  470.36   17.46  491.09   17.84
  539.68   18.70  659.54   20.67  755.42   17.74  845.83   18.77  946.25   19.86
 1027.92   20.70 1115.42   21.56 1228.83   27.17 1370.57   28.69 1739.34   32.32
 2346.55   37.54 2944.74   42.05 3559.16   46.23 3845.05   48.06 3933.93   48.61
 3670.87   46.95 3107.51   43.20 2405.41   38.01 1795.20   32.84 1276.88   27.69
  927.33   23.60  685.89   20.30  536.34   17.95  440.84   16.27  405.41   15.60
  378.98   15.09  362.76   14.76  377.78   15.06  437.24   16.21  403.60   15.57
  467.87   16.76  467.27   16.75  464.86   16.71  457.66   16.58  403.60   15.57
  410.81   15.71  362.76   14.76  388.59   15.28  375.98   15.03  363.96   14.79
  359.76   14.70  365.17   14.81  385.59   15.22  375.98   15.03  407.21   15.64
  416.22   15.81  450.45   16.45  495.50   17.25  547.15   18.13  607.21   19.10
  687.09   20.31  735.14   21.01  789.19   21.77  769.37   21.50  713.51   20.70
  632.24   16.00  579.59   15.32  500.20   14.23  461.73   13.68  422.03   13.07
  378.29   12.38  370.97   14.95  358.33   14.69  357.72   14.68  349.89   14.52
  345.08   14.42  334.24   14.19  341.46   14.34  354.11   14.60  347.49   14.47
  375.79   15.04  364.95   14.83  361.94   14.76  362.54   14.78  402.29   15.57
  401.69   15.55  431.80   16.13  501.66   17.38  643.78   19.69  806.38   22.04
 1046.07   25.10 1252.03   27.46 1451.97   29.57 1575.43   30.80 1584.46   30.89
 1516.41   30.22 1348.39   28.50 1115.33   25.92  899.13   23.27  796.75   21.90
  650.41   19.79  595.00   18.93  509.49   17.52  511.89   17.56  434.81   16.18
  442.64   16.33  414.94   15.81  385.43   15.24  372.18   14.97  373.38   15.00
  354.11   14.60  392.05   15.37  358.33   14.69  331.23   14.12  347.49   14.47
  376.99   15.07  369.77   14.92  358.33   14.69  343.27   14.38  346.25   11.87
  333.64   11.65  368.63   12.25  361.71   12.13  373.51   12.33  369.85   12.27
  368.46   15.17  406.56   15.93  400.94   15.82  404.06   15.89  405.93   15.92
  409.68   16.00  376.58   15.34  435.91   16.50  399.06   15.79  369.71   15.20
  390.94   15.63  400.31   15.81  345.36   14.69  362.22   15.04  370.34   15.21
  321.62   14.17  362.84   15.05  346.60   14.71  345.36   14.69  350.35   14.79
  355.35   14.90  345.98   14.70  380.33   15.41  342.23   14.62  337.24   14.51
  385.95   15.53  354.72   14.88  322.87   14.20  378.45   15.37  377.83   15.36
  369.71   15.20  377.83   15.36  356.60   14.92  355.35   14.90  360.34   15.00
  363.47   15.07  358.47   14.96  377.83   15.36  374.71   15.30  374.71   15.30
  371.58   15.23  390.94   15.63  390.94   15.63  448.40   16.73  439.66   16.57
  471.51   17.16  558.31   18.67  634.50   19.91  691.12   17.14  844.66   18.95
  967.57   20.29 1141.95   22.04 1502.60   25.28 1973.82   35.72 2524.48   40.39
 2994.99   44.00 3599.29   48.23 3826.14   49.73 3768.62   49.35 3476.49   47.40
 2981.42   43.90 2379.06   39.21 1880.76   34.86 1418.65   30.28 1084.50   26.47
  831.15   23.18  615.29   19.94  547.42   18.81  495.72   17.90  457.59   17.20
  423.98   16.55  364.52   15.35  352.88   15.10  412.34   16.32  370.33   15.47
  355.47   15.16  380.68   15.69  351.59   15.07  337.37   14.77  373.57   15.54
  365.81   15.38  334.79   14.71  357.41   15.20  337.37   14.77  354.82   15.14
  330.91   14.62  325.74   14.51  328.97   14.58  345.13   14.94  358.70   15.23
  365.81   15.38  369.69   15.46  345.13   14.94  367.75   15.42  361.93   15.29
  359.35   15.24  327.03   14.54  369.69   15.46  361.29   15.28  337.37   14.77
  369.69   15.46  359.99   15.25  351.28   12.55  347.24   12.48  372.81   12.93
  352.62   12.58  382.23   13.10  418.37   17.09  442.12   17.57  478.44   18.28
  535.01   19.33  628.60   20.95  801.12   23.65  963.16   25.94 1202.72   28.98
 1490.48   32.26 1774.75   35.21 1959.84   37.00 2131.66   38.59 1982.89   37.21
 1744.02   34.90 1546.36   32.86 1273.97   29.83 1086.08   27.54  937.31   25.59
  759.91   23.04  663.52   21.53  623.71   20.87  499.39   18.68  521.04   19.08
  453.29   17.79  448.40   17.70  432.34   17.38  395.32   16.62  352.02   15.68
  356.21   15.77  372.27   16.12  369.48   16.06  396.02   16.63  368.78   16.05
  388.34   16.47  433.04   17.39  368.78   16.05  422.56   17.18  426.75   17.26
  357.60   15.80  418.37   17.09  396.72   16.65  367.38   16.02  369.48   16.06
  352.02   15.68  426.75   17.26  381.35   16.32  402.30   16.76  372.27   16.12
  389.73   16.50  424.66   17.22  457.34   14.18  455.58   14.15  486.81   14.63
  545.73   15.49  612.20   20.04  769.03   22.46  896.98   24.26 1137.80   27.32
 1536.75   31.75 1894.36   35.26 2148.95   37.55 2522.31   40.68 2597.77   41.29
 2591.21   41.23 2421.26   39.86 2036.75   36.56 1710.63   33.50 1423.23   30.56
 1095.80   26.81  906.17   24.38  694.88   21.35  616.14   20.11  552.49   19.04
  566.27   19.28  547.90   18.96  614.17   20.07  727.03   21.84  858.27   23.73
 1137.80   27.32 1503.28   31.41 1915.35   35.45 2485.56   40.38 2952.76   44.02
 3550.52   48.27 3636.48   48.85 3904.86   50.62 3598.43   48.59 3305.77   46.57
 2804.46   42.90 2320.21   39.02 1874.67   35.07 1482.28   31.19 1307.74   29.29
 1118.11   27.09 1075.46   26.56 1052.49   26.28 1049.87   26.25 1085.96   26.69
 1061.02   26.39 1053.15   26.29  983.60   25.40  831.36   23.36  779.53   22.62
  643.03   16.63  616.38   16.28  524.82   15.02  467.23   14.17  425.10   13.52
  422.56   16.03  403.71   15.67  401.28   15.62  373.92   15.08  407.96   15.75
  435.93   16.28  429.85   16.17  525.31   17.87  595.84   19.03  649.95   19.88
  715.61   20.86  787.96   21.89  835.39   22.54  840.86   22.61  835.99   22.55
  755.74   21.44  693.11   20.53  619.55   19.41  545.98   18.22  482.75   17.13
  427.42   16.12  417.08   15.92  366.62   14.93  389.12   15.38  381.82   15.24
  397.02   15.54  382.43   15.25  365.41   14.91  379.39   15.19  358.11   14.76
  368.45   14.97  347.17   14.53  392.16   15.44  358.72   14.77  361.76   14.83
  355.07   14.69  345.34   14.49  370.88   15.02  371.49   15.03  352.64   14.64
  381.82   15.24  367.84   14.95  347.17   14.53  362.37   14.84  345.34   14.49
  317.98   13.90  346.56   14.52  339.87   14.37  351.42   14.62  353.67   11.96
  358.12   12.04  369.45   12.23  378.35   12.37  363.78   12.13  391.70   12.59
  379.37   15.26  376.30   15.20  387.97   15.43  335.17   14.34  360.34   14.87
  372.62   15.12  403.31   15.73  345.61   14.57  356.66   14.80  394.72   15.57
  365.87   14.99  416.82   16.00  399.02   15.65  410.68   15.88  429.71   16.24
  457.34   16.76  454.27   16.70  466.54   16.92  500.92   17.54  542.05   18.24
  577.04   18.82  607.12   19.31  736.65   21.27  810.93   22.31  926.34   23.85
  920.20   23.77  928.79   23.88  928.79   23.88  853.28   22.89  787.60   21.99
  745.86   21.40  642.11   19.85  576.43   18.81  487.42   17.30  474.52   17.07
  430.33   16.25  459.79   16.80  411.30   15.89  454.27   16.70  483.12   17.22
  491.10   17.36  553.10   18.43  507.67   17.65  593.00   19.08  509.52   17.69
  520.56   17.88  488.03   17.31  494.17   17.42  408.23   15.83  407.41   12.81
  391.71   12.56  381.64   12.40  361.11   12.06  366.93   14.77  330.66   14.02
  327.68   13.96  335.41   14.12  316.38   13.72  359.80   14.63  341.96   14.26
  356.23   14.56  329.47   14.00  330.66   14.02  360.39   14.64  334.82   14.11
  333.04   14.07  337.20   14.16  347.90   14.38  324.71   13.90  363.96   14.71
  331.25   14.04  312.22   13.63  343.74   14.30  337.79   14.17  325.30   13.91
  331.85   14.05  324.71   13.90  328.28   13.97  350.28   14.43  325.30   13.91
  344.93   14.32  328.28   13.97  331.85   14.05  331.25   14.04  330.66   14.02
  334.82   14.11  326.49   13.93  321.14   13.82  302.11   13.40  359.80   14.63
  350.88   14.45  335.41   14.12  333.63   14.09  365.15   14.74  334.82   14.11
  335.41   14.12  340.17   14.22  372.29   14.88  363.96   14.71  378.83   15.01
  405.00   15.52  451.98   16.39  478.14   16.86  515.79   14.47  576.71   15.30
  639.25   16.11  717.64   17.07  783.13   21.88  874.83   23.13  957.97   24.20
 1065.57   25.52 1219.01   27.30 1371.85   28.96 1406.08   29.32 1429.93   29.57
 1385.30   29.10 1283.20   28.01 1082.07   25.72 1021.55   24.99  841.82   22.69
  762.34   21.59  637.63   19.74  563.66   18.56  511.08   17.68  414.49   15.92
  390.65   15.45  370.47   15.05  355.80   14.75  342.96   14.48  391.26   15.47
  352.13   14.67  367.42   14.99  374.75   15.14  354.58   14.72  354.58   14.72
  363.14   14.90  361.30   14.86  354.58   14.72  380.25   15.25  383.31   15.31
  397.37   15.59  423.05   16.08  416.32   15.95  462.17   16.81  496.41   17.42
  502.52   17.53  547.76   18.30  548.37   18.31  567.32   18.62  537.98   18.14
  528.81   17.98  523.31   17.89  485.40   17.23  478.68   17.11  429.16   16.20
  402.26   15.68  396.07   12.67  375.80   12.34  378.64   12.39  369.31   12.24
  382.28   12.45  389.99   12.57  383.43   15.42  405.77   15.87  420.66   16.16
  449.82   16.71  441.14   16.54  557.78   18.60  545.37   18.39  552.82   18.52
  587.56   19.09  617.96   19.58  642.78   19.97  615.48   19.54  593.14   19.18
  547.85   18.44  501.32   17.64  480.22   17.26  452.30   16.75  432.45   16.38
  411.35   15.98  380.33   15.36  357.38   14.89  371.03   15.17  356.13   14.86
  360.48   14.96  371.65   15.19  357.38   14.89  320.15   14.09  358.00   14.90
  365.44   15.06  347.45   14.68  331.94   14.35  350.55   14.75  358.00   14.90
  330.70   14.32  353.03   14.80  335.04   14.42  347.45   14.68  362.96   15.01
  340.62   14.54  389.64   15.55  340.62   14.54  375.37   15.26  363.58   15.02
  393.36   15.62  408.87   15.93  475.88   17.18  474.64   17.16  524.27   18.04
  566.45   15.24  586.95   15.51  624.24   16.00  660.31   16.45  735.32   17.36
  762.37   17.68  851.12   22.65  883.06   23.07  913.20   23.46  881.86   23.06
  874.62   22.96  822.78   22.27  811.93   22.12  723.33   20.88  659.43   19.94
  616.64   19.28  593.13   18.91  552.74   18.25  497.29   17.31  502.11   17.40
  497.29   17.31  529.23   17.86  551.54   18.23  573.24   18.59  641.35   19.66
  679.32   20.24  784.81   21.75  817.36   22.20  804.70   22.02  831.83   22.39
  835.44   22.44  758.29   21.38  729.96   20.98  701.63   20.57  607.59   19.14
  599.16   19.00  547.32   18.16  465.94   16.76  476.19   16.94  445.45   16.39
  435.80   16.21  437.01   16.23  437.61   16.24  420.13   15.91  423.75   15.98
  444.24   16.36  438.82   16.26  433.39   16.16  468.96   16.81  447.86   16.43
  432.79   16.15  488.25   17.16  472.57   16.88  488.81   13.91  520.50   14.36
  534.36   14.55  614.78   15.61  675.38   16.36  772.03   17.49  920.58   23.32
 1046.94   24.86 1209.33   26.72 1390.02   28.65 1600.83   30.75 1761.44   32.25
 1797.46   32.58 1835.84   32.92 1839.98   32.96 1730.74   31.97 1630.35   31.03
 1512.84   29.89 1332.74   28.05 1137.29   25.91 1029.23   24.65  868.62   22.65
  732.80   20.80  634.19   19.35  505.46   17.28  521.41   17.55  440.51   16.13
  402.72   15.42  388.54   15.15  374.37   14.87  354.30   14.46  318.28   13.71
  340.71   14.18  336.58   14.10  347.21   14.32  341.90   14.21  339.53   14.16
  361.38   14.61  353.71   14.45  341.90   14.21  344.26   14.26  341.90   14.21
  349.57   14.37  317.09   13.68  352.52   14.43  331.86   14.00  337.17   14.11
  348.39   14.34  320.64   13.76  328.31   13.92  302.33   13.36  361.97   14.62
  325.95   13.87  296.43   13.23  327.13   13.90  338.56   11.55  334.22   11.48
  347.23   11.70  326.73   11.35  326.34   11.34  324.70   13.78  324.70   13.78
  321.19   13.71  333.48   13.97  334.65   13.99  322.95   13.75  336.99   14.04
  325.87   13.81  344.60   14.20  322.36   13.73  329.38   13.88  340.50   14.11
  338.75   14.08  338.75   14.08  338.16   14.07  349.86   14.31  335.23   14.00
  345.77   14.22  325.87   13.81  314.17   13.56  337.57   14.05  346.94   14.25
  369.75   14.71  402.52   15.35  456.34   16.34  435.28   15.96  448.15   16.19
  530.06   17.61  534.15   17.68  611.96   18.92  700.89   20.25  716.69   20.48
  888.11   22.79  986.40   24.02 1115.11   25.54 1352.64   28.13 1424.60   28.87
 1530.50   29.92 1651.02   31.08 1668.57   31.24 1698.41   31.52 1676.17   31.32
 1649.26   31.06 1511.19   29.73 1397.10   28.59 1225.10   26.77 1102.24   25.39
 1008.04   24.28  858.00   18.47  787.99   17.70  694.91   16.63  619.73   15.70
  593.08   15.36  525.33   17.85  547.77   18.23  553.23   18.32  590.84   18.93
  599.94   19.08  616.32   19.34  678.19   20.28  675.16   20.24  713.98   20.81
  676.37   20.26  685.47   20.39  644.83   19.78  631.48   19.57  606.61   19.18
  552.02   18.30  533.82   18.00  479.83   17.06  467.09   16.83  422.20   16.00
  376.10   15.10  400.36   15.58  405.22   15.68  397.94   15.54  379.13   15.17
  366.39   14.91  348.20   14.53  355.47   14.68  349.41   14.56  349.41   14.56
  340.92   14.38  351.84   14.61  334.85   14.25  344.56   14.46  332.42   14.20
  357.29   14.72  328.18   14.11  318.47   13.90  356.08   14.70  364.57   14.87
  346.38   14.50  375.49   15.09  371.85   15.02  408.86   15.75  382.17   15.23
  426.45   16.08  442.83   16.39  481.04   17.08  530.18   17.93  564.76   18.51
  613.89   19.30  670.49   16.42  806.03   18.01  884.46   18.86 1056.61   20.62
 1104.07   21.07 1246.88   27.55 1331.51   28.47 1380.21   28.99 1442.92   29.64
 1418.57   29.39 1421.00   29.41 1329.07   28.45 1201.83   27.05 1219.48   27.25
 1067.88   25.50  965.60   24.25  811.57   22.23  775.04   21.72  641.70   19.77
  572.30   18.67  544.29   18.20  504.11   17.52  465.14   16.83  415.83   15.91
  423.14   16.05  376.26   15.14  389.04   15.39  393.30   15.47  359.21   14.79
  354.34   14.69  357.99   14.76  368.95   14.99  371.99   15.05  391.48   15.44
  374.43   15.10  393.91   15.49  430.44   16.19  426.18   16.11  424.96   16.09
  478.54   17.07  511.42   17.65  554.64   18.38  589.95   18.95  635.62   19.67
  647.79   19.86  654.49   19.96  663.01   20.09  686.15   20.44  694.67   20.57
  677.02   20.30  688.58   20.48  640.49   19.75  670.93   20.21  638.66   19.72
  622.67   15.71  682.92   16.45  682.92   16.45  695.60   16.60  742.62   20.79
  832.82   22.02  910.23   23.02 1009.17   24.23 1035.94   24.55 1161.65   26.00
 1226.25   26.71 1240.80   26.87 1286.77   27.37 1265.24   27.14 1268.15   27.17
 1250.69   26.98 1138.95   25.75 1122.65   25.56 1084.82   25.13  989.96   24.00
  859.60   22.37  807.22   21.67  735.05   20.68  668.12   19.72  614.00   18.90
  567.44   18.17  531.94   17.59  510.40   17.24  450.46   16.19  443.47   16.07
  437.65   15.96  412.05   15.49  371.89   14.71  396.33   15.19  343.37   14.14
  373.64   14.75  337.55   14.02  381.78   14.91  345.12   14.17  343.95   14.15
  369.56   14.67  356.18   14.40  364.32   14.56  359.67   14.47  348.61   14.24
  353.85   14.35  381.78   14.91  376.55   14.80  408.56   15.42  413.79   15.52
  417.87   15.59  413.21   15.51  447.55   16.14  445.22   16.10  515.95   14.34
  502.39   14.15  557.02   14.90  537.08   14.63  551.83   14.83  573.57   18.53
  563.99   18.38  601.11   18.97  560.40   18.32  558.60   18.29  549.02   18.13
  518.49   17.62  517.29   17.60  529.26   17.80  526.27   17.75  534.05   17.88
  548.42   18.12  535.85   17.91  643.02   19.62  672.35   20.06  693.91   20.38
  737.02   21.01  795.09   21.82  916.03   23.42 1019.01   24.70 1151.32   26.25
 1317.77   28.09 1497.38   29.94 1759.62   32.46 1990.12   34.52 2249.36   36.70
 2381.68   37.76 2612.18   39.55 2743.90   40.53 2848.68   41.30 2861.85   41.39
 2894.78   41.63 2804.37   40.98 2679.24   40.05 2628.95   39.67 2417.00   38.04
 2224.22   36.49 1915.28   33.86 1705.73   31.96 1469.24   29.66 1326.75   28.18
 1121.39   25.91  947.76   23.82  829.82   22.29  763.96   21.39  672.35   20.06
  588.53   18.77  530.46   17.82  468.79   16.75  446.50   13.54  434.18   13.35
  392.28   12.69  374.61   12.40  404.60   12.89  377.09   15.58  405.41   16.15
  415.70   16.36  434.36   16.72  420.21   16.44  409.27   16.23  472.97   17.45
  465.25   17.30  496.78   17.88  549.55   18.81  534.11   18.54  537.32   18.59
  542.47   18.68  564.35   19.06  551.48   18.84  530.89   18.48  577.86   19.28
  555.98   18.91  521.24   18.31  536.04   18.57  514.80   18.20  501.93   17.97
  471.69   17.42  441.44   16.85  401.54   16.07  430.50   16.64  436.29   16.76
  414.41   16.33  380.31   15.64  375.16   15.54  406.69   16.18  396.40   15.97
  365.51   15.34  341.70   14.83  355.21   15.12  348.78   14.98  348.78   14.98
  319.18   14.33  368.08   15.39  361.65   15.26  359.72   15.21  379.02   15.62
  342.99   14.86  388.03   15.80  391.25   15.87  405.41   16.15  413.77   16.32
  436.94   16.77  441.13   13.52  461.03   13.83  489.22   14.24  514.10   14.60
  547.68   15.07  577.94   15.48  597.93   19.20  620.74   19.56  624.44   19.62
  629.37   19.70  656.50   20.12  692.86   20.67  700.88   20.79  633.69   19.76
  592.39   19.11  654.03   20.08  642.93   19.91  654.65   20.09  586.84   19.02
  562.80   18.63  559.10   18.56  498.69   17.53  550.47   18.42  563.42   18.64
  584.99   18.99  562.80   18.63  606.56   19.34  616.43   19.49  661.43   20.19
  737.25   21.32  742.80   21.40  871.63   23.18  916.63   23.77 1033.75   25.24
 1165.66   26.81 1259.36   27.86 1382.03   29.19 1488.67   30.29 1487.44   30.28
 1552.17   30.93 1637.85   31.77 1733.39   32.69 1627.99   31.68 1679.77   32.18
 1579.29   31.20 1589.77   31.30 1528.12   30.69 1385.73   29.23 1319.77   28.52
 1209.43   27.30 1077.52   25.77  997.38   24.80  955.46   24.27  880.26   23.29
  790.26   22.07  740.07   17.25  720.76   17.03  645.55   16.11  610.56   15.67
  579.19   15.26  551.68   17.90  529.04   17.53  505.23   17.13  508.13   17.18
  500.58   17.05  506.97   17.16  498.26   17.01  501.74   17.07  498.84   17.02
  547.04   17.82  572.01   18.23  601.63   18.69  655.05   19.50  698.03   20.13
  720.67   20.46  825.78   21.90  835.08   22.02  830.43   21.96  926.25   23.19
  939.61   23.36  986.06   23.93 1016.26   24.29 1015.10   24.28 1011.03   24.23
  939.02   23.35  991.29   23.99  892.57   22.77  901.28   22.88  858.30   22.33
  775.26   21.22  768.29   21.12  700.35   20.17  634.15   19.19  579.56   18.35
  539.49   17.70  536.00   17.64  480.84   16.71  445.99   16.09  439.02   15.97
  429.15   15.79  409.99   15.43  391.41   15.08  376.31   14.78  375.15   14.76
  345.53   14.17  349.59   14.25  324.62   13.73  364.69   14.55  338.56   14.02
  346.15   11.55  334.59   11.36  354.63   11.69  344.99   11.53  335.78   13.91
  382.43   14.84  368.61   14.57  366.88   14.54  404.90   15.27  396.83   15.12
  365.73   14.51  383.59   14.86  410.66   15.38  441.18   15.94  438.30   15.89
  433.12   15.79  468.83   16.43  488.41   16.77  510.87   17.15  541.40   17.66
  581.14   18.30  629.52   19.04  654.28   19.41  719.37   20.35  753.35   20.83
  871.99   22.41  871.42   22.40  961.27   23.53 1007.92   24.09 1015.98   24.19
 1094.89   25.11 1101.22   25.18 1093.74   25.10 1149.03   25.73 1128.87   25.50
 1051.12   24.60 1087.98   25.03 1047.08   24.56 1023.47   24.28  961.27   23.53
  924.98   23.08  867.39   22.35  775.81   21.14  726.85   20.46  711.30   20.24
  646.22   19.29  616.27   18.84  567.89   18.09  533.33   17.53  512.60   17.18
  509.14   17.12  530.45   17.48  505.69   17.07  484.22   14.02  488.69   14.08
  509.79   14.38  513.04   14.43  517.10   14.49  538.20   14.78  581.34   19.06
  559.46   18.70  609.47   19.52  617.60   19.65  675.11   20.54  779.50   22.07
  817.00   22.60  858.88   23.17  913.27   23.89  918.89   23.97  967.03   24.59
  975.15   24.69 1040.79   25.51 1077.04   25.95 1125.80   26.53 1142.05   26.72
 1130.18   26.58 1120.18   26.46 1101.42   26.24 1055.79   25.69 1054.54   25.67
 1057.04   25.71  981.40   24.77  971.40   24.64  872.64   23.36  880.76   23.46
  888.89   23.57  860.13   23.19  783.25   22.13  803.88   22.42  790.75   22.23
  785.75   22.16  890.76   23.60  910.14   23.85  904.52   23.78  969.53   24.62
 1000.78   25.01 1040.16   25.50 1143.30   26.73 1145.80   26.76 1241.44   27.86
 1222.07   27.64 1263.32   28.10 1268.95   28.16 1277.07   28.25 1221.44   27.63
 1283.33   28.32 1308.95   28.60 1165.18   26.99 1250.20   27.96 1158.31   26.91
 1113.30   26.38 1070.79   25.87 1014.53   25.18  872.85   34.64  853.61   34.25
  746.39   32.03  661.17   30.15  629.55   29.42  552.58   27.56  551.20   27.53
  509.97   26.48  569.07   27.97  476.98   25.61  479.73   25.68  424.74   24.16
  430.24   24.32  437.11   24.51  373.88   22.67  406.87   23.65  365.64   22.42
  360.14   22.25  365.64   22.42  371.13   22.59  361.51   22.29  421.99   24.08
  353.26   22.04  408.25   23.69  393.13   23.25  432.99   24.40  412.37   23.81
  490.72   25.97  445.36   24.74  472.85   25.49  508.59   26.44  468.73   25.38
  547.08   27.42  483.85   25.79  514.09   26.58  526.46   26.90  552.58   27.56
  518.21   26.69  555.33   27.63  530.58   27.01  556.70   27.66  544.33   27.35
  567.70   27.93  526.46   26.90  549.83   27.49  564.95   27.87  485.22   25.83
  498.97   26.19  494.85   26.08  479.73   25.68  442.61   24.67  472.85   25.49
  468.73   25.38                                                                