                                                                                
BANK 1 2431 487 CONST  602.500    5.000 0 0 ESD                                 
  551.49   25.02  539.01   24.73  608.23   26.27  576.45   25.58  518.58   24.26
  551.49   25.02  525.39   24.42  516.31   24.21  531.06   24.55  560.57   25.22
  519.72   24.28  507.23   23.99  578.72   25.63  527.66   24.47  521.99   24.34
  552.62   25.04  560.57   25.22  533.33   24.60  482.27   23.39  500.43   23.83
  586.67   25.80  483.40   23.42  554.89   25.09  489.08   23.56  534.47   24.63
  521.99   24.34  516.31   24.21  548.09   24.94  509.50   24.04  523.12   24.36
  509.50   24.04  515.18   24.18  515.18   24.18  500.43   23.83  549.22   24.96
  563.97   25.30  528.79   24.50  534.47   24.63  514.04   24.15  512.91   24.13
  562.84   25.27  520.85   24.31  514.04   24.15  498.16   23.78  509.50   24.04
  511.77   24.10  558.30   25.17  537.87   24.71  478.87   23.31  497.02   23.75
  535.60   24.65  517.45   24.23  516.04   17.08  513.21   17.03  520.56   17.15
  536.95   17.42  536.95   17.42  514.91   17.06  531.30   17.33  545.43   17.56
  510.39   16.98  506.43   16.92  523.95   17.21  526.21   17.25  544.30   17.54
  518.86   17.13  505.86   16.91  509.26   16.97  552.21   17.67  505.30   16.90
  493.99   16.71  513.78   17.04  543.73   17.53  513.21   17.03  552.78   17.68
  522.26   17.18  505.30   16.90  510.95   16.99  521.69   17.17  503.60   16.87
  493.99   16.71  516.04   17.08  505.30   16.90  517.17   17.10  482.13   16.51
  503.04   16.86  508.69   16.96  522.82   17.19  497.95   16.78  476.47   16.41
  513.78   17.04  529.04   17.29  514.91   17.06  518.86   17.13  499.65   16.80
  536.95   17.42  508.69   16.96  495.13   16.73  499.08   16.80  507.56   16.94
  491.73   16.67  509.82   16.98  504.17   16.88  506.43   16.92  457.82   16.09
  484.20   13.43  480.10   13.38  470.41   13.24  471.16   13.25  499.49   13.64
  505.82   13.73  498.74   13.63  519.24   13.91  489.59   16.49  494.03   16.56
  484.04   16.39  496.25   16.60  487.93   16.46  480.71   16.34  496.81   16.61
  492.37   16.53  464.06   16.05  516.24   16.93  480.16   16.33  500.69   16.67
  494.59   16.57  490.15   16.49  471.27   16.17  469.05   16.14  489.04   16.48
  464.61   16.06  481.82   16.35  494.59   16.57  465.72   16.08  467.94   16.12
  495.14   16.58  484.04   16.39  499.03   16.64  470.72   16.16  451.85   15.84
  480.71   16.34  459.62   15.97  462.95   16.03  453.51   15.87  466.83   16.10
  479.60   16.32  478.49   16.30  466.28   16.09  478.49   16.30  458.51   15.95
  477.38   16.28  449.63   15.80  446.85   15.75  480.16   16.33  462.39   16.02
  481.27   16.34  445.74   15.73  481.82   16.35  484.04   16.39  481.82   16.35
  460.91   13.08  457.94   13.04  450.51   12.94  458.31   13.05  435.65   12.72
  459.96   15.97  467.17   16.09  476.03   16.24  479.36   16.30  463.29   16.02
  464.39   16.04  461.07   15.98  491.55   16.50  453.31   15.85  480.47   16.32
  426.16   15.37  467.17   16.09  451.65   15.82  466.06   16.07  463.84   16.03
  456.64   15.91  433.92   15.51  467.17   16.09  474.37   16.21  460.52   15.98
  479.91   16.31  447.77   15.75  443.89   15.68  458.30   15.94  483.24   16.36
  445.55   15.71  472.15   16.18  444.44   15.69  422.28   15.30  457.19   15.92
  450.54   15.80  441.12   15.64  453.31   15.85  438.35   15.59  446.11   15.72
  474.92   16.22  446.66   15.73  425.05   15.35  427.27   15.39  436.13   15.55
  443.89   15.68  416.74   15.20  428.93   15.42  453.31   15.85  458.30   15.94
  471.04   16.16  443.89   15.68  449.99   15.79  430.59   15.45  443.89   15.68
  450.61   12.91  432.49   12.64  458.00   13.01  455.98   15.95  440.35   15.68
  458.21   15.99  456.54   15.96  434.21   15.57  414.68   15.21  442.03   15.71
  455.98   15.95  464.91   16.11  439.24   15.66  500.63   16.72  437.00   15.62
  449.28   15.84  471.61   16.22  473.28   16.25  477.75   16.33  458.77   16.00
  488.91   16.52  464.35   16.10  511.23   16.89  525.18   17.12  531.88   17.23
  557.56   17.64  566.49   17.78  599.41   18.29  635.13   18.83  694.29   19.68
  730.01   20.18  799.22   21.12  986.19   23.46 1145.25   25.28 1396.40   27.92
 1639.18   30.25 1971.82   33.17 2176.08   34.85 2251.43   35.45 2229.66   35.28
 1909.86   32.65 1535.93   29.28 1288.13   26.81  901.35   22.43  678.11   19.45
  495.05   16.62  473.28   16.25  425.84   15.42  440.91   15.69  421.38   15.34
  466.58   16.14  463.79   16.09  445.93   15.78  435.33   15.59  450.10   13.18
  434.67   12.95  448.94   13.16  449.72   13.17  431.32   15.92  426.03   15.82
  458.35   16.41  450.12   16.26  454.24   16.34  459.53   16.43  478.92   16.78
  491.26   16.99  478.33   16.77  518.29   17.45  547.08   17.93  561.19   18.16
  582.34   18.50  680.48   20.00  736.30   20.80  841.49   22.24  972.53   23.91
 1144.12   25.93 1429.12   28.98 1758.19   32.14 2033.79   34.57 2225.94   36.17
 2262.38   36.46 2080.21   34.96 1824.59   32.74 1427.35   28.96 1050.68   24.85
  775.67   21.35  582.34   18.50  474.22   16.69  436.61   16.02  451.30   16.28
  440.72   16.09  414.28   15.60  428.38   15.87  411.34   15.55  430.73   15.91
  436.61   16.02  427.79   15.86  439.55   16.07  451.30   16.28  409.58   15.51
  438.37   16.05  464.23   16.52  414.28   15.60  426.03   15.82  447.77   16.22
  419.57   15.70  436.02   16.01  466.92   13.61  426.86   13.01  431.22   13.08
  443.12   13.26  447.09   13.32  437.17   13.17  461.73   16.88  430.86   16.31
  425.31   16.20  446.91   16.61  432.72   16.34  467.28   16.98  457.41   16.80
  466.67   16.97  434.57   16.38  450.00   16.67  438.89   16.46  504.32   17.64
  464.20   16.93  498.77   17.55  508.64   17.72  524.69   18.00  578.40   18.90
  633.33   19.77  699.38   20.78  771.60   21.82  841.98   22.80  887.65   23.41
  908.02   23.68  895.68   23.51  777.16   21.90  725.93   21.17  588.27   19.06
  519.75   17.91  445.06   16.57  445.68   16.59  458.64   16.83  496.91   17.51
  403.09   15.77  446.30   16.60  448.77   16.64  448.77   16.64  423.46   16.17
  439.51   16.47  434.57   16.38  424.07   16.18  459.26   16.84  441.36   16.51
  428.40   16.26  461.73   16.88  430.25   16.30  441.98   16.52  424.07   16.18
  454.32   16.75  437.53   13.61  425.67   13.43  453.20   13.85  429.48   13.49
  420.16   13.34  439.22   13.64  405.77   16.13  417.31   16.36  417.31   16.36
  446.79   16.92  432.05   16.64  426.92   16.54  473.08   17.41  467.31   17.31
  423.72   16.48  455.13   17.08  432.05   16.64  413.46   16.28  427.56   16.56
  421.15   16.43  421.79   16.44  430.77   16.62  432.05   16.64  438.46   16.76
  423.08   16.47  437.82   16.75  432.69   16.65  403.85   16.09  417.95   16.37
  446.15   16.91  412.18   16.25  427.56   16.56  450.00   16.98  439.10   16.78
  457.69   17.13  440.38   16.80  453.21   17.04  441.03   16.81  452.56   17.03
  430.13   16.60  427.56   16.56  432.05   16.64  412.82   16.27  450.00   16.98
  422.44   16.46  441.03   16.81  443.59   16.86  442.31   16.84  421.15   16.43
  423.08   16.47  438.46   16.76  430.77   16.62  440.38   16.80  426.28   16.53
  417.31   16.36  436.19   13.42  425.05   13.24  426.29   13.26  428.76   13.30
  412.65   16.04  424.50   16.27  429.48   16.36  410.78   16.00  440.70   16.57
  423.87   16.25  409.54   15.98  427.61   16.33  429.48   16.36  426.37   16.30
  379.62   15.38  436.96   16.50  441.95   16.60  403.93   15.87  416.39   16.11
  425.74   16.29  426.37   16.30  417.64   16.13  410.16   15.99  423.25   16.24
  409.54   15.98  427.61   16.33  427.61   16.33  397.07   15.73  417.64   16.13
  432.60   16.42  423.87   16.25  374.63   15.28  414.52   16.07  458.78   16.91
  403.93   15.87  426.37   16.30  453.79   16.82  428.24   16.34  410.78   16.00
  404.55   15.88  422.00   16.22  412.03   16.03  398.94   15.77  414.52   16.07
  401.43   15.82  410.16   15.99  416.39   16.11  407.67   15.94  418.26   16.15
  411.41   16.01  407.04   15.93  426.37   16.30  431.98   16.41  420.95   13.06
  416.08   12.98  406.77   12.84  420.54   13.05  414.06   12.95  393.69   15.10
  426.69   15.72  433.64   15.84  413.95   15.48  425.53   15.70  415.69   15.51
  441.16   15.98  408.74   15.38  413.37   15.47  384.43   14.92  430.16   15.78
  411.64   15.44  435.37   15.88  434.80   15.87  434.80   15.87  425.53   15.70
  405.85   15.33  382.69   14.88  417.43   15.55  415.69   15.51  436.53   15.90
  404.69   15.31  442.90   16.01  395.43   15.13  422.06   15.63  419.74   15.59
  416.85   15.53  401.22   15.24  388.48   15.00  415.11   15.50  390.22   15.03
  431.32   15.80  446.95   16.09  387.32   14.97  422.06   15.63  416.27   15.52
  409.32   15.39  453.90   16.21  461.43   16.34  440.58   15.97  401.22   15.24
  451.58   16.17  454.48   16.22  426.69   15.72  418.58   15.57  404.11   15.30
  417.43   15.55  444.64   16.04  400.64   15.23  387.90   14.99  407.77   12.61
  408.55   12.63  431.18   12.97  409.33   12.64  415.57   12.73  423.07   15.78
  419.54   15.71  399.53   15.33  396.59   15.28  403.65   15.41  416.59   15.66
  403.65   15.41  416.59   15.66  410.12   15.53  391.29   15.17  398.94   15.32
  423.07   15.78  420.12   15.72  428.36   15.88  414.83   15.62  399.53   15.33
  403.65   15.41  406.00   15.46  410.71   15.55  436.01   16.02  409.53   15.52
  426.01   15.83  423.07   15.78  433.07   15.96  398.35   15.31  451.90   16.31
  476.02   16.74  460.14   16.45  519.56   17.48  568.40   18.29  661.37   19.73
  829.07   22.09 1016.77   24.46 1196.23   26.53 1335.10   28.03 1345.69   28.14
 1336.28   28.04 1160.34   26.13  980.29   24.02  752.57   21.04  587.23   18.59
  480.14   16.81  473.67   16.69  420.71   15.73  404.24   15.42  407.18   15.48
  407.77   15.49  414.83   15.62  416.47   12.72  430.85   12.94  407.54   12.58
  396.27   12.41  392.00   12.34  412.87   15.54  393.57   15.17  422.22   15.71
  421.05   15.69  393.57   15.17  411.70   15.52  394.74   15.19  412.28   15.53
  414.62   15.57  427.49   15.81  433.92   15.93  436.84   15.98  416.37   15.60
  439.18   16.03  400.58   15.31  414.04   15.56  434.50   15.94  438.60   16.02
  419.30   15.66  422.22   15.71  412.87   15.54  405.26   15.39  400.00   15.29
  407.02   15.43  406.43   15.42  383.04   14.97  422.22   15.71  420.47   15.68
  442.69   16.09  421.05   15.69  383.04   14.97  389.47   15.09  436.84   15.98
  442.11   16.08  429.82   15.85  438.60   16.02  442.11   16.08  462.57   16.45
  475.44   16.67  553.80   18.00  553.22   17.99  622.81   19.08  690.06   20.09
  744.44   20.86  745.61   20.88  857.89   22.40  984.80   24.00 1228.65   26.81
 1511.11   29.73 1886.05   27.15 2153.43   29.01 2372.72   30.45 2330.50   30.18
 2025.21   28.14 1691.39   25.71 1333.33   27.82  998.98   24.08  752.87   20.90
  554.93   17.95  504.43   17.11  419.10   15.60  438.25   15.95  441.16   16.00
  432.45   15.84  434.19   15.88  435.35   15.90  416.20   15.54  430.71   15.81
  394.14   15.13  414.45   15.51  445.22   16.08  444.06   16.05  471.34   16.54
  449.86   16.16  495.72   16.96  541.58   17.73  668.70   19.70  902.63   22.89
 1212.02   26.52 1926.57   33.44 2983.02   41.61 4762.15   52.58 7193.73   64.62
10186.04   76.8913169.64   87.4315221.59   94.0015918.73   96.1314125.67   90.55
11561.17   81.92 8272.82   69.30 5267.16   55.29 2977.80   41.58 1557.39   30.07
  875.93   22.55  606.59   18.76  515.45   17.30  464.37   16.42  487.59   16.82
  474.82   16.60  486.43   16.80  557.25   17.99  591.50   18.53  719.73   17.24
  916.69   19.46 1204.50   22.30 1560.03   25.38 1811.50   27.35 2038.61   29.01
 2203.91   37.74 1933.11   35.35 1660.37   32.76 1321.05   29.22  941.02   24.66
  721.28   21.59  558.41   19.00  483.44   17.68  454.35   17.14  471.80   17.46
  454.35   17.14  433.67   16.74  423.33   16.54  428.50   16.64  429.79   16.67
  405.24   16.18  394.25   15.96  412.99   16.34  415.58   16.39  463.40   17.31
  418.16   16.44  445.95   16.98  435.61   16.78  437.55   16.82  513.81   18.22
  504.12   18.05  536.44   18.62  537.73   18.64  585.56   19.45  542.25   18.72
  527.39   18.46  582.32   19.40  527.39   18.46  491.19   17.82  451.12   17.08
  438.84   16.84  433.67   16.74  411.70   16.31  434.32   16.75  402.00   16.12
  420.10   16.48  418.16   16.44  365.81   15.38  419.45   16.47  418.16   16.44
  393.60   15.95  403.30   16.14  427.21   16.62  418.16   16.44  397.65   12.91
  388.02   12.75  416.93   13.22  410.64   13.12  393.04   12.83  421.26   16.55
  387.45   15.87  434.26   16.80  405.01   16.23  423.86   16.60  375.75   15.63
  386.15   15.84  391.35   15.95  390.05   15.92  387.45   15.87  384.85   15.82
  407.61   16.28  384.85   15.82  408.26   16.29  399.80   16.12  392.65   15.98
  395.90   16.04  434.26   16.80  406.96   16.27  367.95   15.47  392.65   15.98
  410.86   16.34  384.20   15.80  407.61   16.28  402.41   16.17  398.50   16.10
  408.91   16.30  384.85   15.82  381.60   15.75  406.31   16.25  379.65   15.71
  388.75   15.90  362.10   15.34  408.91   16.30  391.35   15.95  377.05   15.66
  401.11   16.15  379.65   15.71  390.05   15.92  375.75   15.63  404.36   16.21
  367.30   15.45  410.86   16.34  393.30   15.99  411.51   16.36  375.75   15.63
  352.35   15.13  380.95   15.74  371.85   15.55  374.24   12.64  393.89   12.97
  399.02   13.06  407.56   13.20  394.70   15.51  421.50   16.02  383.13   15.28
  384.96   15.31  387.39   15.36  381.91   15.25  394.09   15.49  385.56   15.32
  373.99   15.09  375.82   15.13  402.01   15.65  384.35   15.30  380.08   15.22
  397.75   15.57  374.60   15.11  381.30   15.24  404.45   15.70  386.78   15.35
  408.71   15.78  394.09   15.49  367.90   14.97  367.90   14.97  379.47   15.20
  412.36   15.85  389.22   15.40  378.25   15.18  390.44   15.42  391.05   15.43
  399.57   15.60  368.51   14.98  406.88   15.74  391.05   15.43  397.75   15.57
  411.76   15.84  424.55   16.08  435.51   16.29  502.51   17.50  556.11   18.40
  687.07   20.46  755.90   21.46  839.96   22.62  857.62   22.86  832.65   22.52
  744.33   21.29  640.17   19.75  565.25   18.56  503.73   17.52  450.13   16.56
  397.75   15.57  399.57   15.60  373.64   12.23  377.64   12.29  395.24   12.57
  387.64   12.45  395.24   12.57  419.15   15.89  375.79   15.04  416.74   15.84
  393.86   15.40  446.25   16.39  428.18   16.06  502.26   17.39  649.20   19.77
  774.47   21.60 1091.24   25.64 1459.80   29.65 1722.37   32.21 2118.04   35.71
 2282.45   37.07 2266.79   36.95 2002.41   34.73 1572.42   30.77 1220.11   27.11
  914.78   23.47  680.52   20.24  514.30   17.60  451.07   16.48  389.04   15.31
  385.43   15.24  402.29   15.57  403.49   15.59  389.04   15.31  377.60   15.08
  404.70   15.61  400.48   15.53  355.92   14.64  376.99   15.07  378.20   15.09
  395.66   15.44  373.98   15.01  381.21   15.15  380.01   15.13  399.28   15.51
  373.98   15.01  369.77   14.92  372.78   14.98  385.43   15.24  379.40   15.12
  363.75   14.80  371.57   14.96  388.44   15.29  375.19   15.03  419.75   15.90
  372.78   14.98  357.93   12.11  375.97   12.42  378.02   12.45  370.64   12.33
  382.12   12.52  331.81   14.24  407.58   15.78  403.30   15.70  394.74   15.53
  377.02   15.18  399.63   15.63  388.02   15.40  432.02   16.25  421.02   16.04
  454.02   16.66  453.41   16.65  452.80   16.63  493.13   17.36  578.67   18.80
  636.72   19.73  739.99   21.26  931.26   23.85 1296.06   28.14 1751.91   32.72
 2444.85   38.65 3214.79   44.32 3772.69   48.01 3949.89   49.13 3755.58   47.90
 3359.61   45.31 2601.28   39.87 1948.06   34.50 1345.55   28.67  928.20   23.82
  691.72   20.56  515.12   17.74  428.96   16.19  410.02   15.83  381.91   15.28
  399.02   15.61  372.14   15.08  380.08   15.24  408.19   15.79  389.86   15.43
  356.25   14.75  359.30   14.82  377.64   15.19  348.30   14.59  366.03   14.96
  362.97   14.89  377.64   15.19  376.41   15.17  407.58   15.78  373.36   15.10
  364.42   12.23  375.50   12.41  378.78   12.47  375.09   12.41  374.27   12.39
  394.62   15.81  401.58   15.95  398.42   15.89  404.75   16.01  439.59   16.69
  483.93   17.51  549.80   18.66  672.05   20.63  888.04   23.72 1169.91   27.22
 1425.81   30.05 1731.75   33.12 1814.09   33.90 1810.93   33.87 1578.46   31.62
 1288.99   28.57  933.02   24.31  796.83   22.47  535.23   18.41  494.70   17.70
  433.89   16.58  399.68   15.91  388.28   15.68  388.92   15.70  391.45   15.75
  381.95   15.55  381.95   15.55  363.58   15.18  361.05   15.12  375.61   15.42
  394.62   15.81  402.85   15.97  423.12   16.37  445.92   16.81  496.60   17.74
  496.60   17.74  548.54   18.64  578.94   19.15  536.50   18.43  528.27   18.29
  485.19   17.53  440.86   16.71  418.69   16.28  400.95   15.94  397.15   15.86
  380.05   15.52  383.21   15.58  345.21   14.79  351.54   14.92  382.06   12.85
  404.11   13.22  367.37   12.60  372.99   12.70  374.72   12.73  369.32   15.51
  394.72   16.03  349.13   15.08  377.14   15.67  398.63   16.11  341.96   14.92
  374.53   15.62  383.65   15.81  388.21   15.90  368.02   15.48  383.65   15.81
  365.41   15.43  384.95   15.83  401.89   16.18  387.56   15.89  375.18   15.63
  373.23   15.59  419.48   16.53  394.07   16.02  397.98   16.10  362.81   15.37
  377.14   15.67  369.32   15.51  397.33   16.09  356.95   15.25  378.44   15.70
  362.81   15.37  392.12   15.98  359.55   15.30  406.45   16.27  368.67   15.50
  410.36   16.35  371.28   15.55  414.92   16.44  428.59   16.71  464.42   17.39
  520.44   18.41  556.91   19.05  599.25   19.76  623.35   20.15  638.33   20.39
  634.42   20.33  566.03   19.20  538.02   18.72  465.07   17.40  450.09   17.12
  429.25   16.72  411.66   16.37  384.95   15.83  399.36   13.05  343.47   12.11
  389.55   12.89  377.60   12.69  371.20   12.58  362.16   15.32  388.08   15.86
  369.94   15.48  367.35   15.43  360.22   15.28  382.90   15.75  379.66   15.68
  362.81   15.33  375.77   15.60  369.29   15.47  399.74   16.09  396.50   16.03
  380.30   15.70  393.26   15.96  382.90   15.75  372.53   15.54  410.11   16.30
  371.88   15.52  375.12   15.59  381.60   15.72  406.87   16.24  430.19   16.69
  440.56   16.89  450.92   17.09  520.89   18.37  636.22   20.30  712.02   21.48
  789.76   22.62  791.71   22.65  807.90   22.88  724.98   21.67  638.16   20.33
  609.01   19.86  583.09   19.44  517.65   18.31  508.58   18.15  470.36   17.46
  496.92   17.94  500.81   18.01  471.01   17.47  408.16   16.26  452.87   17.13
  417.88   16.45  438.61   16.86  410.75   16.31  433.43   16.76  524.78   18.44
  574.67   19.30  660.84   20.69  780.42   18.03  911.25   19.49  926.67   19.65
 1043.33   20.85 1137.50   21.77 1169.97   26.51 1407.21   29.07 1777.18   32.67
 2364.56   37.68 2921.32   41.89 3469.67   45.65 3828.83   47.95 3943.54   48.67
 3624.62   46.66 3101.50   43.16 2392.79   37.91 1829.43   33.15 1275.08   27.67
  926.73   23.59  726.13   20.88  548.95   18.16  424.02   15.96  428.83   16.05
  387.99   15.27  403.60   15.57  407.21   15.64  371.17   14.93  354.35   14.59
  367.57   14.86  366.37   14.83  357.36   14.65  360.96   14.72  371.77   14.94
  399.40   15.49  347.75   14.45  404.20   15.58  347.75   14.45  375.38   15.02
  363.36   14.77  345.95   14.41  372.37   14.95  405.41   15.60  405.41   15.60
  419.22   15.87  449.25   16.43  490.09   17.16  560.36   18.35  624.02   19.36
  733.33   20.99  736.94   21.04  752.55   21.26  757.96   21.34  751.95   21.25
  664.64   16.41  609.15   15.71  498.58   14.21  446.33   13.45  409.88   12.88
  388.01   12.54  355.92   14.64  362.54   14.78  364.95   14.83  354.11   14.60
  375.19   15.03  375.19   15.03  349.89   14.52  352.30   14.57  354.71   14.62
  386.63   15.26  376.39   15.06  374.59   15.02  384.22   15.21  401.08   15.54
  413.73   15.78  419.15   15.89  575.13   18.61  693.77   20.44  867.81   22.86
 1087.02   25.59 1277.93   27.74 1479.67   29.85 1609.15   31.13 1636.86   31.40
 1470.04   29.75 1238.18   27.31 1052.69   25.18  890.09   23.15  720.26   20.83
  566.09   18.46  500.45   17.36  398.68   15.49  423.97   15.98  375.19   15.03
  371.57   14.96  369.17   14.91  380.01   15.13  357.72   14.68  348.69   14.49
  366.76   14.86  349.29   14.50  372.78   14.98  350.50   14.53  368.56   14.90
  383.02   15.19  377.60   15.08  368.56   14.90  358.93   14.70  367.00   12.22
  391.41   12.62  358.86   12.08  388.57   12.57  366.19   12.21  364.56   12.18
  391.57   15.64  369.71   15.20  429.04   16.37  415.30   16.10  447.15   16.71
  435.28   16.49  427.79   16.35  413.43   16.07  384.70   15.50  393.44   15.68
  356.60   14.92  384.07   15.49  364.09   15.08  345.36   14.69  365.96   15.12
  385.32   15.51  352.85   14.84  343.48   14.65  360.34   15.00  351.60   14.82
  354.72   14.88  335.36   14.47  343.48   14.65  379.70   15.40  347.23   14.73
  373.46   15.27  373.46   15.27  339.73   14.57  365.34   15.10  358.47   14.96
  382.20   15.45  370.34   15.21  354.72   14.88  387.20   15.55  372.83   15.26
  394.69   15.70  365.34   15.10  354.72   14.88  374.08   15.28  368.46   15.17
  394.69   15.70  437.78   16.53  404.06   15.89  417.80   16.15  497.11   17.62
  505.23   17.76  548.95   18.52  658.24   20.28  723.87   17.55  821.27   18.69
 1024.99   20.88 1199.36   22.59 1523.02   25.45 2037.16   36.29 2611.73   41.09
 3153.34   45.14 3539.18   47.83 3805.46   49.59 3714.98   49.00 3289.71   46.11
 2743.58   42.11 2303.44   38.58 1758.60   33.71 1324.93   29.26  912.59   24.29
  754.24   22.08  555.18   18.94  504.12   18.05  420.10   16.48  416.22   16.40
  403.30   16.14  384.55   15.77  362.58   15.31  382.61   15.73  343.19   14.89
  359.99   15.25  378.74   15.65  389.08   15.86  352.24   15.09  365.81   15.38
  356.12   15.17  394.89   15.98  358.05   15.21  336.08   14.74  332.85   14.67
  360.64   15.27  347.07   14.98  367.10   15.40  370.98   15.48  342.54   14.88
  352.24   15.09  403.30   16.14  369.04   15.44  362.58   15.31  349.65   15.03
  356.76   15.18  350.30   15.05  358.70   15.23  332.85   14.67  349.65   15.03
  345.13   14.94  342.54   14.88  353.97   12.60  375.50   12.98  374.61   12.96
  401.08   13.41  423.06   13.78  421.16   17.15  443.51   17.60  486.82   18.44
  568.54   19.93  641.87   21.17  833.94   24.13 1050.46   27.09 1203.42   28.99
 1630.17   33.74 1825.04   35.70 2008.03   37.45 2022.00   37.58 2063.21   37.96
 1766.37   35.12 1496.07   32.33 1264.89   29.72 1088.88   27.58  889.12   24.92
  782.96   23.38  678.89   21.78  607.65   20.60  528.03   19.20  508.47   18.85
  503.58   18.75  458.88   17.90  414.88   17.02  393.23   16.57  407.19   16.86
  359.70   15.85  353.41   15.71  368.78   16.05  377.16   16.23  367.38   16.02
  349.22   15.62  354.81   15.74  396.72   16.65  355.51   15.76  395.32   16.62
  384.84   16.39  359.70   15.85  353.41   15.71  363.89   15.94  374.37   16.17
  402.30   16.76  388.34   16.47  389.03   16.48  399.51   16.70  414.88   17.02
  453.99   17.81  466.56   18.05  449.87   14.07  479.77   14.53  513.63   15.03
  597.63   16.21  631.23   20.35  755.91   22.27  947.51   24.93 1194.23   27.99
 1469.82   31.06 1822.83   34.58 2191.60   37.92 2473.75   40.29 2654.20   41.73
 2581.36   41.16 2366.14   39.40 2004.59   36.27 1751.97   33.91 1396.33   30.27
 1138.45   27.33  854.99   23.69  708.01   21.55  616.14   20.11  580.71   19.52
  555.77   19.10  603.67   19.90  659.45   20.80  746.06   22.13  904.86   24.37
 1072.83   26.53 1456.69   30.92 1918.64   35.48 2456.69   40.15 3038.71   44.65
 3509.19   47.99 3811.02   50.01 3763.12   49.69 3585.96   48.51 3299.21   46.53
 2805.12   42.90 2278.22   38.66 1810.37   34.47 1461.94   30.97 1278.87   28.97
 1154.20   27.52 1082.68   26.65 1041.99   26.15 1063.65   26.42 1077.43   26.59
 1059.06   26.36 1003.28   25.66  931.10   24.72  838.58   23.46  727.69   21.85
  647.75   16.69  585.00   15.86  539.44   15.23  470.66   14.22  449.17   13.89
  404.32   15.68  362.37   14.84  388.51   15.37  384.25   15.28  439.58   16.35
  433.50   16.23  471.80   16.94  500.99   17.45  592.80   18.98  620.16   19.42
  721.08   20.94  784.92   21.85  811.07   22.21  857.27   22.83  797.69   22.02
  728.99   21.05  660.28   20.04  625.63   19.50  520.44   17.79  474.84   16.99
  435.32   16.27  420.73   15.99  403.71   15.67  401.28   15.62  367.23   14.94
  336.22   14.30  343.52   14.45  338.05   14.34  340.48   14.39  332.57   14.22
  353.85   14.67  345.95   14.50  355.68   14.71  353.25   14.66  369.05   14.98
  350.81   14.60  323.45   14.02  348.99   14.57  353.85   14.67  353.25   14.66
  358.11   14.76  363.58   14.87  362.97   14.86  352.03   14.63  352.64   14.64
  347.17   14.53  349.60   14.58  355.68   14.71  350.21   14.59  365.40   12.16
  377.14   12.35  358.52   12.04  372.69   12.28  357.31   12.02  358.52   12.04
  354.82   14.76  365.25   14.97  366.48   15.00  373.24   15.14  371.39   15.10
  367.10   15.01  340.70   14.46  363.41   14.94  365.25   14.97  348.07   14.62
  356.05   14.78  359.12   14.85  373.85   15.15  361.57   14.90  374.46   15.16
  407.61   15.82  424.19   16.14  440.15   16.44  477.59   17.12  549.42   18.36
  578.88   18.85  696.13   20.67  750.77   21.47  862.49   23.01  933.09   23.93
  959.48   24.27  987.72   24.62  892.57   23.41  833.03   22.61  796.19   22.11
  672.81   20.32  602.82   19.24  520.56   17.88  480.05   17.17  447.51   16.57
  459.18   16.79  431.55   16.28  434.01   16.32  436.46   16.37  478.21   17.13
  468.39   16.96  535.91   18.14  527.32   17.99  525.48   17.96  559.85   18.54
  502.15   17.56  480.05   17.17  429.10   16.23  437.69   16.39  415.46   12.93
  377.21   12.32  364.33   12.11  365.94   12.14  340.77   14.24  341.36   14.25
  334.82   14.11  337.79   14.17  338.39   14.19  345.52   14.33  345.52   14.33
  355.63   14.54  331.85   14.05  336.60   14.15  331.85   14.05  340.17   14.22
  330.66   14.02  339.58   14.21  334.23   14.10  348.50   14.40  321.74   13.83
  337.20   14.16  340.77   14.24  356.23   14.56  327.68   13.96  340.77   14.24
  345.52   14.33  326.49   13.93  330.66   14.02  338.98   14.20  347.90   14.38
  336.60   14.15  329.47   14.00  352.07   14.47  326.49   13.93  321.74   13.83
  314.01   13.67  350.28   14.43  347.90   14.38  348.50   14.40  339.58   14.21
  340.17   14.22  327.09   13.95  348.50   14.40  354.45   14.52  360.99   14.65
  367.53   14.78  344.34   14.31  398.45   15.39  384.18   15.12  372.88   14.89
  428.19   15.96  459.11   16.52  502.53   17.29  519.85   14.53  600.26   15.61
  642.50   16.15  737.94   17.31  777.62   21.80  876.66   23.15  965.92   24.30
 1094.91   25.87 1239.80   27.53 1311.94   28.32 1345.56   28.68 1393.24   29.18
 1388.35   29.13 1239.19   27.52 1195.17   27.03  956.75   24.18  872.38   23.09
  743.39   21.32  660.86   20.10  578.94   18.81  494.57   17.39  426.72   16.15
  397.98   15.60  338.07   14.38  371.69   15.07  359.47   14.82  346.63   14.56
  348.46   14.60  352.74   14.68  369.25   15.02  336.85   14.35  352.13   14.67
  324.62   14.09  335.01   14.31  360.08   14.84  364.36   14.92  368.03   15.00
  396.15   15.56  397.98   15.60  394.93   15.54  434.05   16.29  500.08   17.48
  506.19   17.59  531.87   18.03  517.19   17.78  551.43   18.36  538.59   18.15
  548.37   18.31  503.13   17.54  496.41   17.42  454.23   16.66  460.34   16.78
  390.65   15.45  402.15   12.77  386.34   12.51  385.93   12.51  402.55   12.77
  375.80   12.34  385.53   12.50  389.02   15.54  397.08   15.70  425.00   16.24
  469.68   17.07  505.04   17.70  544.13   18.37  579.49   18.96  598.11   19.26
  616.10   19.55  671.94   20.42  609.28   19.44  618.58   19.59  565.22   18.73
  555.92   18.57  497.60   17.57  514.97   17.87  433.07   16.39  428.11   16.30
  408.25   15.92  385.92   15.47  390.88   15.57  358.00   14.90  379.71   15.35
  363.58   15.02  351.79   14.77  333.18   14.38  322.63   14.15  363.58   15.02
  349.93   14.73  350.55   14.75  331.32   14.34  339.38   14.51  349.93   14.73
  322.63   14.15  348.07   14.70  350.55   14.75  334.42   14.40  345.59   14.64
  395.84   15.67  354.89   14.84  371.03   15.17  372.89   15.21  412.60   16.00
  397.70   15.71  434.93   16.43  475.26   17.17  492.01   17.47  494.49   17.52
  575.88   15.36  596.37   15.63  623.83   15.99  706.22   17.01  725.48   17.24
  787.79   17.97  827.61   22.34  848.70   22.62  913.20   23.46  943.94   23.85
  874.62   22.96  796.26   21.91  793.85   21.87  735.38   21.05  640.75   19.65
  597.95   18.98  562.39   18.41  541.29   18.06  510.55   17.54  509.95   17.53
  487.04   17.13  502.11   17.40  599.16   19.00  614.83   19.25  633.51   19.54
  702.83   20.58  769.14   21.53  781.80   21.71  793.85   21.87  833.63   22.42
  790.84   21.83  783.60   21.73  771.55   21.57  667.87   20.06  641.95   19.67
  601.57   19.04  538.28   18.01  493.67   17.25  453.89   16.54  470.77   16.85
  447.26   16.42  418.93   15.89  393.01   15.39  419.53   15.90  427.37   16.05
  453.89   16.54  458.71   16.63  471.37   16.86  414.10   15.80  408.68   15.70
  430.98   16.12  437.01   16.23  471.97   16.87  478.11   13.76  527.63   14.46
  546.25   14.71  654.78   16.11  703.51   16.69  805.70   17.86  938.29   23.54
 1062.89   25.05 1209.33   26.72 1450.84   29.27 1645.11   31.17 1758.49   32.22
 1832.30   32.89 1868.32   33.21 1858.28   33.13 1793.92   32.55 1629.17   31.02
 1473.28   29.50 1338.65   28.12 1131.38   25.85  984.35   24.11  836.73   22.23
  693.83   20.24  604.07   18.89  549.16   18.01  495.42   17.10  459.40   16.47
  417.48   15.70  370.83   14.80  363.74   14.66  355.48   14.49  335.40   14.07
  324.77   13.85  330.68   13.97  326.54   13.89  331.27   13.99  346.03   14.29
  355.48   14.49  331.86   14.00  337.17   14.11  347.80   14.33  321.23   13.77
  334.22   14.05  315.91   13.66  344.85   14.27  364.33   14.67  330.09   13.96
  338.35   14.13  343.08   14.23  331.27   13.99  337.76   14.12  325.36   13.86
  347.21   14.32  337.76   14.12  341.30   14.20  333.83   11.47  323.18   11.29
  336.19   11.51  332.64   11.45  325.94   11.33  355.71   14.43  337.57   14.05
  342.26   14.15  334.06   13.98  348.11   14.27  340.50   14.11  348.11   14.27
  317.68   13.63  330.55   13.91  329.38   13.88  358.05   14.47  337.57   14.05
  335.23   14.00  352.79   14.37  367.41   14.66  350.45   14.32  337.57   14.05
  315.93   13.60  341.09   14.13  361.56   14.54  360.39   14.52  320.61   13.70
  403.10   15.36  397.84   15.26  397.84   15.26  438.79   16.02  461.02   16.42
  474.48   16.66  541.17   17.79  593.83   18.64  680.42   19.95  779.29   21.35
  891.03   22.83 1005.12   24.25 1142.02   25.85 1322.80   27.82 1451.51   29.14
 1555.65   30.17 1654.53   31.11 1758.67   32.08 1703.09   31.57 1659.79   31.16
 1588.42   30.48 1479.01   29.42 1351.47   28.12 1265.47   27.21 1066.55   24.98
  964.75   23.76  834.92   18.22  774.86   17.56  712.01   16.83  626.89   15.79
  600.24   15.45  570.22   18.60  544.74   18.18  578.10   18.73  590.84   18.93
  593.27   18.97  592.66   18.96  663.03   20.05  676.98   20.26  667.27   20.12
  674.55   20.23  689.72   20.45  615.10   19.32  620.56   19.40  561.12   18.45
  544.13   18.17  528.97   17.91  480.44   17.07  430.09   16.15  422.81   16.02
  405.22   15.68  393.69   15.45  392.48   15.43  356.69   14.71  373.67   15.06
  347.59   14.52  354.87   14.67  346.98   14.51  333.03   14.21  357.29   14.72
  332.42   14.20  346.98   14.51  353.65   14.65  337.88   14.32  340.92   14.38
  324.54   14.03  349.41   14.56  362.15   14.82  355.47   14.68  351.23   14.60
  373.67   15.06  389.44   15.37  362.75   14.83  393.69   15.45  423.42   16.03
  434.94   16.24  459.21   16.69  519.26   17.75  542.31   18.14  569.61   18.59
  643.62   19.76  721.57   17.04  786.73   17.79  925.89   19.30 1009.15   20.15
 1143.09   21.44 1293.15   28.06 1361.95   28.80 1380.82   28.99 1350.38   28.67
 1425.27   29.46 1382.04   29.01 1332.72   28.49 1218.87   27.24 1100.76   25.89
  970.47   24.31  913.85   23.59  817.66   22.31  675.80   20.28  640.49   19.75
  558.90   18.45  550.38   18.31  464.54   16.82  449.92   16.55  407.91   15.76
  405.48   15.71  393.30   15.47  354.34   14.69  357.38   14.75  332.42   14.23
  354.34   14.69  342.77   14.45  353.12   14.66  385.39   15.32  371.39   15.04
  398.78   15.58  386.61   15.34  453.58   16.62  405.48   15.71  470.02   16.92
  476.71   17.04  488.89   17.25  550.38   18.31  581.43   18.81  596.65   19.06
  639.27   19.73  664.23   20.11  712.94   20.83  724.51   21.00  705.02   20.72
  690.41   20.50  678.84   20.33  658.14   20.02  678.84   20.33  669.71   20.19
  648.04   16.03  687.67   16.51  671.03   16.31  692.03   16.56  799.65   21.57
  840.97   22.12  938.16   23.37  970.17   23.76 1071.44   24.97 1202.39   26.45
 1239.63   26.86 1249.53   26.97 1289.10   27.39 1255.35   27.03 1250.69   26.98
 1173.87   26.14 1190.75   26.32 1133.71   25.69 1018.48   24.35  965.52   23.70
  815.36   21.78  761.82   21.06  688.49   20.02  689.07   20.03  601.19   18.71
  570.93   18.23  512.73   17.27  475.48   16.64  438.82   15.98  442.31   16.04
  403.32   15.32  391.68   15.10  406.81   15.39  369.56   14.67  357.92   14.43
  375.96   14.79  361.41   14.50  330.57   13.87  343.37   14.14  344.54   14.16
  341.04   14.09  353.85   14.35  358.50   14.44  353.27   14.34  367.23   14.62
  367.82   14.63  360.83   14.49  371.31   14.70  374.22   14.76  388.19   15.03
  422.52   15.68  443.47   16.07  470.83   16.55  505.75   17.16  523.52   14.45
  540.27   14.68  519.14   14.39  546.65   14.76  596.49   15.42  601.71   18.98
  568.78   18.45  578.96   18.62  559.20   18.30  505.91   17.40  535.85   17.91
  529.86   17.81  537.64   17.94  470.59   16.79  529.26   17.80  505.91   17.40
  539.44   17.97  517.89   17.61  626.85   19.37  672.95   20.07  713.07   20.66
  737.61   21.01  831.01   22.31  900.46   23.22 1063.91   25.24 1180.06   26.58
 1308.19   27.99 1484.81   29.82 1714.71   32.04 1997.90   34.59 2165.54   36.01
 2460.11   38.38 2597.81   39.44 2778.03   40.78 2842.69   41.25 2948.06   42.01
 2881.60   41.54 2818.74   41.08 2693.61   40.16 2547.52   39.05 2300.85   37.12
 2135.61   35.76 1926.66   33.96 1636.28   31.30 1439.90   29.36 1295.02   27.84
 1096.24   25.62  995.06   24.41  839.99   22.43  751.38   21.21  658.58   19.86
  592.13   18.83  544.83   18.06  480.17   16.96  439.10   13.43  411.58   13.00
  391.05   12.67  385.29   12.58  396.80   12.77  379.67   15.63  373.87   15.51
  416.34   16.37  407.98   16.20  396.40   15.97  427.93   16.59  430.50   16.64
  481.98   17.61  510.94   18.13  541.83   18.67  507.72   18.08  546.98   18.76
  528.31   18.44  534.11   18.54  568.21   19.12  607.46   19.77  559.20   18.97
  537.97   18.61  536.68   18.58  541.83   18.67  512.23   18.16  494.21   17.83
  452.38   17.06  451.09   17.04  444.02   16.90  391.89   15.88  395.75   15.96
  409.27   16.23  388.67   15.81  386.74   15.78  378.38   15.60  344.92   14.90
  350.71   15.02  332.05   14.62  347.49   14.95  355.21   15.12  366.80   15.36
  349.42   15.00  364.22   15.31  364.22   15.31  341.06   14.81  384.17   15.72
  407.98   16.20  398.97   16.02  428.57   16.61  385.46   15.75  402.19   16.09
  427.93   16.59  449.83   13.66  483.42   14.16  512.44   14.58  489.22   14.24
  523.22   14.73  570.48   15.38  616.43   19.49  637.39   19.82  639.24   19.85
  649.10   20.00  645.40   19.95  680.54   20.48  668.82   20.30  655.26   20.10
  644.78   19.94  636.77   19.81  646.63   19.97  614.58   19.46  565.88   18.68
  573.89   18.81  556.02   18.51  557.25   18.53  576.36   18.85  542.46   18.29
  585.61   19.00  631.22   19.73  605.33   19.32  641.70   19.89  667.59   20.29
  757.59   21.61  781.01   21.94  896.29   23.51  951.76   24.22 1129.30   26.38
 1201.42   27.21 1304.98   28.36 1361.07   28.97 1557.10   30.98 1602.71   31.43
 1591.00   31.32 1681.62   32.20 1679.15   32.17 1711.20   32.48 1699.49   32.37
 1706.27   32.43 1626.75   31.67 1443.06   29.83 1394.36   29.32 1272.92   28.01
 1206.97   27.28 1104.02   26.09 1004.78   24.89  891.97   23.45  817.38   22.45
  793.96   22.12  752.54   17.40  664.45   16.35  651.99   16.19  604.12   15.59
  569.93   15.14  505.81   17.14  493.03   16.92  491.29   16.89  488.39   16.84
  509.29   17.20  469.22   16.51  499.42   17.03  484.90   16.78  570.85   18.21
  577.24   18.31  578.98   18.34  623.11   19.02  654.47   19.50  711.38   20.33
  731.13   20.61  774.10   21.20  852.50   22.25  924.51   23.17  980.84   23.87
  950.06   23.49 1015.68   24.29  992.45   24.01  998.26   24.08 1019.16   24.33
  977.35   23.82  948.32   23.47  887.34   22.70  901.28   22.88  832.75   21.99
  804.88   21.62  767.13   21.11  667.25   19.68  648.08   19.40  605.69   18.75
  551.10   17.89  506.39   17.15  480.84   16.71  520.33   17.38  421.60   15.65
  432.64   15.85  412.31   15.47  400.12   15.24  369.92   14.66  380.95   14.87
  387.92   15.01  357.72   14.41  370.50   14.67  364.69   14.55  319.40   13.62
  338.44   11.42  340.37   11.45  356.17   11.72  360.03   11.78  356.52   14.33
  366.88   14.54  344.42   14.08  378.98   14.77  390.50   15.00  388.19   14.95
  384.16   14.87  392.80   15.04  406.05   15.29  410.08   15.37  457.31   16.23
  453.28   16.16  444.64   16.00  507.99   17.10  505.11   17.06  518.93   17.29
  576.53   18.22  608.21   18.72  694.60   20.00  744.13   20.70  764.87   20.99
  880.63   22.52  899.64   22.76  926.71   23.10  998.70   23.98 1033.84   24.40
 1090.28   25.06 1090.86   25.07 1151.33   25.75 1161.12   25.86 1131.17   25.52
 1144.42   25.67 1118.50   25.38 1070.12   24.83 1032.11   24.38  979.12   23.75
  923.83   23.07  885.24   22.58  824.19   21.79  719.94   20.36  714.76   20.29
  608.78   18.73  605.90   18.68  590.35   18.44  536.21   17.57  529.88   17.47
  524.12   17.37  469.98   16.45  489.56   16.79  500.46   14.25  501.27   14.26
  491.53   14.12  502.89   14.29  491.93   14.13  515.88   14.47  540.08   18.37
  587.59   19.17  616.97   19.64  641.98   20.03  733.24   21.41  761.99   21.82
  821.38   22.66  809.50   22.49  908.89   23.84  953.90   24.42  982.65   24.78
 1008.91   25.11 1093.30   26.14 1110.80   26.35 1053.91   25.67 1153.31   26.85
 1131.43   26.59 1118.30   26.44 1050.79   25.63 1100.80   26.23 1093.30   26.14
 1028.91   25.36  991.40   24.89  941.40   24.26  897.64   23.69  872.01   23.35
  876.39   23.41  829.50   22.77  865.76   23.26  836.38   22.87  837.01   22.87
  858.88   23.17  885.14   23.52  922.64   24.02  960.78   24.51 1027.66   25.35
 1078.29   25.96 1094.55   26.16 1188.94   27.26 1249.57   27.95 1232.69   27.76
 1287.70   28.37 1255.20   28.01 1335.83   28.90 1321.46   28.74 1282.70   28.32
 1217.07   27.58 1223.32   27.65 1219.57   27.61 1168.93   27.03 1123.93   26.51
 1063.29   25.78  955.15   24.43  968.90   24.61  848.11   34.14  782.13   32.79
  750.52   32.12  650.17   29.89  596.56   28.64  619.93   29.19  505.84   26.37
  556.70   27.66  490.72   25.97  426.12   24.20  457.73   25.08  408.25   23.69
  452.23   24.93  419.24   24.01  393.13   23.25  415.12   23.89  354.64   22.08
  364.26   22.38  398.63   23.41  360.14   22.25  431.62   24.36  365.64   22.42
  378.01   22.79  376.63   22.75  373.88   22.67  416.49   23.93  476.98   25.61
  426.12   24.20  397.25   23.37  485.22   25.83  500.34   26.23  529.21   26.97
  493.47   26.04  547.08   27.42  465.98   25.31  485.22   25.83  559.45   27.73
  545.70   27.39  545.70   27.39  558.08   27.70  511.34   26.51  494.85   26.08
  591.07   28.50  547.08   27.42  558.08   27.70  497.59   26.15  542.96   27.32
  519.59   26.72  526.46   26.90  497.59   26.15  519.59   26.72  464.60   25.27
  428.87   24.28                                                                