                                                                                
BANK 1 2431 487 CONST  602.500    5.000 0 0 ESD                                 
  528.79   24.50  552.62   25.04  502.70   23.88  524.26   24.39  506.10   23.96
  521.99   24.34  548.09   24.94  526.52   24.44  535.60   24.65  503.83   23.91
  532.20   24.57  524.26   24.39  520.85   24.31  506.10   23.96  504.96   23.94
  508.37   24.02  523.12   24.36  494.75   23.69  541.28   24.78  554.89   25.09
  472.06   23.14  497.02   23.75  509.50   24.04  486.81   23.50  475.46   23.23
  549.22   24.96  483.40   23.42  501.56   23.86  464.11   22.95  512.91   24.13
  568.51   25.40  507.23   23.99  515.18   24.18  482.27   23.39  489.08   23.56
  533.33   24.60  486.81   23.50  502.70   23.88  490.21   23.59  492.48   23.64
  548.09   24.94  525.39   24.42  508.37   24.02  537.87   24.71  487.94   23.53
  434.61   22.21  503.83   23.91  562.84   25.27  535.60   24.65  478.87   23.31
  532.20   24.57  554.89   25.09  518.30   17.12  531.86   17.34  518.30   17.12
  490.04   16.64  468.56   16.27  479.86   16.47  484.95   16.56  515.47   17.07
  488.91   16.62  497.39   16.77  478.17   16.44  492.86   16.69  506.99   16.93
  492.86   16.69  492.86   16.69  491.73   16.67  503.60   16.87  486.08   16.58
  509.82   16.98  503.04   16.86  456.69   16.07  496.26   16.75  494.56   16.72
  483.26   16.53  518.30   17.12  478.17   16.44  493.99   16.71  489.47   16.63
  488.34   16.61  478.17   16.44  474.21   16.37  505.86   16.91  504.17   16.88
  512.65   17.02  499.65   16.80  499.65   16.80  493.43   16.70  519.99   17.14
  491.73   16.67  521.12   17.16  461.21   16.15  504.73   16.89  483.82   16.54
  495.69   16.74  481.56   16.50  502.47   16.85  476.47   16.41  467.43   16.25
  487.78   16.60  477.60   16.43  486.65   16.58  472.52   16.34  434.65   15.67
  502.84   13.69  499.49   13.64  474.89   13.30  482.71   13.41  515.14   13.86
  503.21   13.70  465.57   13.17  489.42   13.51  476.27   16.26  477.38   16.28
  511.24   16.85  471.27   16.17  475.16   16.24  505.13   16.75  463.50   16.04
  467.94   16.12  495.14   16.58  467.94   16.12  472.38   16.19  478.49   16.30
  469.61   16.15  458.51   15.95  497.36   16.62  470.16   16.16  468.50   16.13
  474.05   16.22  484.60   16.40  469.61   16.15  476.82   16.27  504.58   16.74
  485.15   16.41  476.82   16.27  464.61   16.06  468.50   16.13  477.94   16.29
  499.03   16.64  476.27   16.26  457.40   15.93  473.49   16.21  476.82   16.27
  505.13   16.75  443.52   15.69  493.48   16.55  417.43   15.22  469.61   16.15
  462.39   16.02  476.27   16.26  465.17   16.07  469.61   16.15  442.96   15.68
  466.28   16.09  490.15   16.49  455.18   15.90  455.18   15.90  487.93   16.46
  441.97   12.81  451.62   12.95  466.11   13.16  477.62   13.32  454.97   13.00
  456.64   15.91  484.34   16.38  483.24   16.36  463.84   16.03  464.95   16.05
  473.82   16.20  462.73   16.01  488.78   16.46  435.58   15.54  486.56   16.42
  480.47   16.32  452.76   15.84  472.71   16.19  486.01   16.41  469.38   16.13
  480.47   16.32  476.59   16.25  489.33   16.47  462.18   16.00  474.92   16.22
  480.47   16.32  476.59   16.25  463.29   16.02  462.73   16.01  477.14   16.26
  476.03   16.24  446.66   15.73  456.64   15.91  473.26   16.19  443.89   15.68
  464.95   16.05  443.34   15.67  466.61   16.08  472.15   16.18  457.74   15.93
  451.65   15.82  460.52   15.98  471.60   16.17  456.08   15.90  481.02   16.33
  448.88   15.77  452.20   15.83  487.12   16.43  469.38   16.13  469.94   16.14
  465.50   16.06  463.84   16.03  470.49   16.15  465.50   16.06  490.99   16.50
  453.19   12.94  463.54   13.09  472.41   13.21  474.40   16.27  507.88   16.84
  461.56   16.05  450.40   15.85  468.26   16.17  450.40   15.85  461.56   16.05
  462.12   16.06  468.26   16.17  459.89   16.02  485.56   16.46  463.79   16.09
  491.70   16.57  485.00   16.45  485.00   16.45  478.30   16.34  470.49   16.20
  517.93   17.00  519.05   17.02  539.14   17.35  545.28   17.44  589.37   18.14
  575.97   17.93  615.60   18.54  628.44   18.73  690.94   19.64  760.71   20.60
  817.64   21.36  954.93   23.09 1087.76   24.64 1278.08   26.71 1596.76   29.85
 1821.12   31.88 2134.23   34.51 2262.03   35.53 2240.27   35.36 2033.21   33.69
 1762.52   31.36 1389.70   27.85 1044.79   24.15  723.32   20.09  592.16   18.18
  489.47   16.53  474.95   16.28  459.89   16.02  476.63   16.31  495.60   16.63
  464.91   16.11  453.19   15.90  434.21   15.57  485.00   16.45  483.66   13.66
  484.04   13.66  453.57   13.23  450.49   13.18  464.23   16.52  458.94   16.42
  460.70   16.45  481.27   16.82  461.29   16.46  510.65   17.32  470.69   16.63
  510.06   17.31  493.61   17.03  554.72   18.05  572.35   18.34  608.79   18.91
  634.64   19.31  682.83   20.03  785.07   21.48  921.40   23.27 1080.65   25.20
 1338.03   28.04 1644.78   31.09 1965.04   33.98 2089.61   35.04 2270.02   36.52
 2126.05   35.35 1958.57   33.93 1648.30   31.12 1231.09   26.90  931.98   23.40
  643.46   19.45  567.06   18.25  502.42   17.18  480.68   16.81  453.06   16.32
  468.34   16.59  476.57   16.73  470.69   16.63  477.74   16.76  456.59   16.38
  470.69   16.63  442.49   16.13  467.75   16.58  459.53   16.43  451.30   16.28
  488.32   16.94  480.09   16.80  449.54   16.25  436.61   16.02  449.54   16.25
  467.75   16.58  447.19   16.21  437.17   13.17  453.83   13.42  467.72   13.62
  422.49   12.95  461.77   13.53  465.34   13.59  480.25   17.22  455.56   16.77
  462.96   16.91  445.68   16.59  477.16   17.16  458.64   16.83  497.53   17.52
  466.05   16.96  470.99   17.05  494.44   17.47  453.09   16.72  485.80   17.32
  469.75   17.03  475.31   17.13  529.63   18.08  590.74   19.10  637.04   19.83
  677.78   20.45  769.75   21.80  818.52   22.48  896.91   23.53  875.31   23.24
  917.90   23.80  835.19   22.71  803.70   22.27  623.46   19.62  554.32   18.50
  524.69   18.00  475.31   17.13  461.11   16.87  477.78   17.17  491.98   17.43
  458.64   16.83  474.69   17.12  446.30   16.60  450.00   16.67  456.17   16.78
  442.59   16.53  440.74   16.49  428.40   16.26  468.52   17.01  430.86   16.31
  441.36   16.51  459.88   16.85  430.86   16.31  433.33   16.36  429.63   16.29
  440.12   16.48  440.49   13.66  478.19   14.23  440.49   13.66  451.08   13.82
  436.68   13.60  460.82   13.97  439.10   16.78  481.41   17.57  445.51   16.90
  464.10   17.25  478.21   17.51  432.69   16.65  450.00   16.98  469.87   17.36
  473.72   17.43  499.36   17.89  457.05   17.12  450.00   16.98  454.49   17.07
  451.28   17.01  437.18   16.74  423.08   16.47  454.49   17.07  435.26   16.70
  436.54   16.73  454.49   17.07  463.46   17.24  425.00   16.51  446.79   16.92
  454.49   17.07  453.85   17.06  444.87   16.89  430.13   16.60  460.26   17.18
  460.26   17.18  445.51   16.90  426.92   16.54  444.23   16.87  433.33   16.67
  451.28   17.01  443.59   16.86  427.56   16.56  439.10   16.78  438.46   16.76
  428.85   16.58  414.10   16.29  455.77   17.09  460.26   17.18  439.10   16.78
  428.21   16.57  432.05   16.64  451.92   17.02  445.51   16.90  467.95   17.32
  412.82   16.27  415.97   13.10  436.19   13.42  440.73   13.49  455.17   13.71
  422.00   16.22  462.52   16.98  436.34   16.49  438.21   16.53  420.13   16.18
  441.95   16.60  413.90   16.06  465.64   17.04  440.70   16.57  453.17   16.81
  437.59   16.52  445.69   16.67  455.66   16.85  434.47   16.46  448.18   16.71
  412.65   16.04  431.98   16.41  448.18   16.71  456.91   16.88  437.59   16.52
  465.01   17.03  443.82   16.63  427.61   16.33  420.13   16.18  441.95   16.60
  454.42   16.83  448.18   16.71  434.47   16.46  413.90   16.06  428.86   16.35
  437.59   16.52  456.29   16.86  443.82   16.63  436.96   16.50  446.31   16.68
  451.92   16.78  463.77   17.00  423.25   16.24  423.87   16.25  425.12   16.28
  432.60   16.42  420.13   16.18  446.31   16.68  457.53   16.89  443.82   16.63
  416.39   16.11  424.50   16.27  435.09   16.47  418.89   16.16  438.37   13.33
  437.15   13.31  451.33   13.52  427.83   13.17  444.04   13.41  415.69   15.51
  446.95   16.09  432.48   15.82  438.85   15.94  449.85   16.14  400.06   15.22
  434.22   15.86  425.53   15.70  411.64   15.44  448.69   16.12  427.27   15.73
  415.11   15.50  435.95   15.89  404.11   15.30  431.90   15.81  430.74   15.79
  419.74   15.59  437.69   15.92  462.01   16.35  423.80   15.66  427.85   15.74
  427.85   15.74  430.74   15.79  437.69   15.92  422.06   15.63  445.80   16.07
  451.01   16.16  433.06   15.83  441.74   15.99  438.85   15.94  433.06   15.83
  450.43   16.15  425.53   15.70  437.69   15.92  465.48   16.42  422.06   15.63
  436.53   15.90  474.16   16.57  456.22   16.25  435.95   15.89  459.69   16.31
  437.11   15.91  443.48   16.02  442.90   16.01  419.16   15.58  426.11   15.71
  415.11   15.50  432.48   15.82  441.16   15.98  428.43   15.75  437.42   13.06
  438.98   13.09  418.69   12.78  440.54   13.11  460.05   13.40  427.77   15.87
  435.42   16.01  439.54   16.08  421.89   15.76  412.47   15.58  431.89   15.94
  424.83   15.81  432.48   15.95  433.07   15.96  426.60   15.84  461.90   16.49
  457.19   16.40  432.48   15.95  430.13   15.91  443.66   16.16  450.72   16.29
  418.95   15.70  438.95   16.07  400.71   15.36  427.77   15.87  465.43   16.55
  442.48   16.14  453.07   16.33  435.42   16.01  435.42   16.01  437.19   16.04
  488.97   16.96  513.68   17.39  585.47   18.56  650.78   19.57  804.94   21.76
  923.80   23.31 1087.38   25.29 1300.97   27.67 1396.29   28.66 1389.23   28.59
 1231.54   26.92  964.99   23.83  790.82   21.57  641.95   19.44  541.34   17.85
  465.43   16.55  475.43   16.73  442.48   16.14  440.13   16.09  426.60   15.84
  406.00   15.46  430.13   15.91  438.23   13.05  443.67   13.13  427.74   12.89
  409.48   12.61  423.47   12.83  426.32   15.79  437.43   15.99  409.94   15.48
  423.98   15.75  425.73   15.78  445.03   16.13  453.22   16.28  407.60   15.44
  408.19   15.45  417.54   15.63  421.05   15.69  438.01   16.00  422.22   15.71
  451.46   16.25  416.96   15.62  437.43   15.99  430.41   15.87  429.24   15.84
  419.30   15.66  419.30   15.66  435.09   15.95  439.77   16.04  444.44   16.12
  443.86   16.11  421.64   15.70  435.09   15.95  430.99   15.88  392.98   15.16
  419.30   15.66  426.32   15.79  414.04   15.56  421.64   15.70  429.24   15.84
  441.52   16.07  442.11   16.08  452.63   16.27  481.29   16.78  526.90   17.55
  521.64   17.47  612.28   18.92  650.29   19.50  643.27   19.40  728.65   20.64
  752.05   20.97  887.13   22.78 1040.35   24.67 1291.23   27.48 1555.56   30.16
 1912.87   33.45 2231.21   29.53 2309.78   30.05 2278.51   29.84 2018.57   28.09
 1643.70   25.35 1191.05   21.58  922.94   23.15  722.68   20.48  527.06   17.49
  445.22   16.08  431.87   15.83  428.97   15.78  466.12   16.45  456.83   16.28
  438.25   15.95  460.31   16.35  441.74   16.01  466.70   16.46  428.38   15.77
  485.27   16.78  422.58   15.66  438.25   15.95  475.40   16.61  487.59   16.82
  503.27   17.09  576.40   18.29  723.84   20.50  974.02   23.78 1253.81   26.98
 1933.54   33.50 3044.55   42.04 4776.67   52.66 6944.13   63.4910000.87   76.19
12779.57   86.1315085.76   93.5815457.26   94.7214367.15   91.3211980.84   83.39
 8511.39   70.29 5490.06   56.45 3065.45   42.18 1614.86   30.62  922.36   23.14
  610.07   18.82  516.04   17.31  533.45   17.60  493.98   16.93  528.23   17.51
  498.04   17.00  566.54   18.13  629.23   19.11  715.72   20.38  902.24   19.30
 1165.27   21.94 1463.40   24.58 1849.08   27.63 2041.09   29.03 2095.18   29.41
 1935.69   35.37 1721.12   33.35 1324.29   29.26  977.86   25.14  743.25   21.92
  591.37   19.55  511.23   18.18  478.91   17.59  450.48   17.06  472.45   17.47
  449.83   17.05  434.32   16.75  405.88   16.20  432.38   16.72  444.01   16.94
  419.45   16.47  414.28   16.36  411.70   16.31  456.94   17.18  469.87   17.43
  465.34   17.34  515.75   18.26  532.56   18.55  501.53   18.00  535.79   18.61
  568.10   19.16  565.52   19.12  599.77   19.69  574.57   19.27  544.19   18.75
  551.95   18.89  535.79   18.61  509.94   18.15  497.66   17.93  418.81   16.45
  432.38   16.72  405.88   16.20  418.81   16.45  411.70   16.31  416.22   16.40
  427.86   16.63  419.45   16.47  447.89   17.01  402.65   16.13  424.62   16.57
  404.59   16.17  421.39   16.50  429.79   16.67  404.59   16.17  396.40   12.89
  416.93   13.22  415.67   13.20  395.98   12.88  417.35   13.22  421.91   16.56
  399.80   16.12  423.86   16.60  423.21   16.59  394.60   16.02  434.26   16.80
  440.76   16.93  410.21   16.33  399.80   16.12  405.66   16.24  405.66   16.24
  430.36   16.73  421.91   16.56  422.56   16.57  423.86   16.60  356.90   15.23
  444.66   17.00  379.00   15.70  392.65   15.98  422.56   16.57  429.06   16.70
  426.46   16.65  410.86   16.34  400.46   16.13  406.31   16.25  405.01   16.23
  419.31   16.51  405.01   16.23  386.15   15.84  396.55   16.06  401.76   16.16
  404.36   16.21  412.81   16.38  421.26   16.55  416.71   16.46  416.71   16.46
  387.45   15.87  398.50   16.10  416.06   16.45  382.90   15.78  380.30   15.72
  417.36   16.47  395.90   16.04  416.06   16.45  390.05   15.92  380.95   15.74
  406.96   16.27  390.70   15.94  431.01   16.74  404.57   13.15  398.59   13.05
  398.59   13.05  419.10   13.38  423.94   16.07  420.89   16.01  393.48   15.48
  426.98   16.13  397.14   15.55  420.28   16.00  392.26   15.46  429.42   16.17
  403.84   15.68  423.33   16.06  381.91   15.25  408.71   15.78  404.45   15.70
  398.96   15.59  403.23   15.67  415.41   15.91  424.55   16.08  402.62   15.66
  403.84   15.68  408.10   15.77  377.04   15.15  381.30   15.24  395.31   15.52
  395.31   15.52  406.27   15.73  383.74   15.29  400.79   15.62  432.47   16.23
  433.68   16.25  406.27   15.73  384.35   15.30  396.53   15.54  437.95   16.33
  450.74   16.57  484.24   17.17  546.98   18.25  593.27   19.01  665.75   20.14
  799.76   22.07  875.89   23.10  867.37   22.99  832.65   22.52  787.57   21.90
  687.07   20.46  597.53   19.08  512.87   17.67  469.62   16.91  418.46   15.97
  412.36   15.85  433.07   16.24  392.84   12.54  415.24   12.89  428.44   13.09
  408.04   12.78  390.44   12.50  436.62   16.22  391.45   15.35  426.38   16.02
  439.02   16.26  446.25   16.39  575.13   18.61  683.53   20.29  932.85   23.70
 1230.95   27.23 1583.86   30.88 2009.03   34.78 2216.80   36.54 2373.38   37.81
 2154.17   36.02 1889.19   33.73 1469.44   29.75 1161.10   26.44  811.20   22.10
  633.54   19.53  507.68   17.49  464.92   16.73  441.43   16.30  407.71   15.67
  401.69   15.55  390.24   15.33  425.78   16.01  415.54   15.82  369.77   14.92
  378.80   15.10  403.49   15.59  385.43   15.24  397.47   15.47  399.88   15.52
  420.96   15.92  392.05   15.37  395.66   15.44  416.74   15.84  416.14   15.83
  411.32   15.74  401.69   15.55  387.23   15.27  420.96   15.92  402.29   15.57
  407.71   15.67  386.63   15.26  397.47   15.47  413.13   15.77  405.90   15.63
  419.75   15.90  400.57   12.82  413.69   13.02  406.31   12.91  405.90   12.90
  389.91   12.64  396.58   15.57  431.41   16.24  425.91   16.13  422.85   16.07
  414.91   15.92  402.69   15.69  392.30   15.48  453.41   16.65  447.30   16.53
  467.46   16.90  526.12   17.93  595.78   19.08  620.84   19.48  754.66   21.47
  867.71   23.03 1103.57   25.97 1431.71   29.58 2012.83   35.07 2605.56   39.90
 3339.44   45.17 3815.46   48.29 3912.62   48.90 3585.70   46.81 3050.41   43.17
 2389.25   38.21 1682.86   32.07 1176.29   26.81  821.26   22.40  604.34   19.22
  513.29   17.71  440.57   16.41  400.24   15.64  413.69   15.90  405.74   15.75
  380.69   15.25  391.08   15.46  430.19   16.21  403.30   15.70  407.58   15.78
  401.47   15.66  395.97   15.56  403.91   15.71  398.41   15.60  377.64   15.19
  386.19   15.36  394.74   15.53  389.86   15.43  392.91   15.49  374.58   15.13
  407.92   12.94  401.35   12.83  412.43   13.01  360.32   12.16  378.78   12.47
  432.62   16.55  435.15   16.60  430.09   16.51  483.29   17.50  510.53   17.98
  599.21   19.48  729.69   21.50  948.85   24.52 1247.82   28.11 1529.69   31.13
 1764.69   33.43 1758.99   33.38 1712.75   32.94 1556.93   31.40 1316.23   28.87
  948.22   24.51  715.12   21.28  587.17   19.29  514.33   18.05  450.36   16.89
  431.35   16.53  390.82   15.73  390.82   15.73  416.79   16.25  425.02   16.41
  390.82   15.73  395.88   15.84  371.18   15.33  421.22   16.33  424.39   16.40
  417.42   16.26  471.89   17.29  458.59   17.04  495.96   17.72  541.57   18.52
  547.90   18.63  539.03   18.48  528.90   18.30  546.63   18.61  483.29   17.50
  504.20   17.87  435.79   16.61  412.35   16.16  409.18   16.10  411.72   16.15
  369.91   15.31  399.68   15.91  413.62   16.19  384.48   15.61  398.49   13.12
  369.53   12.64  399.35   13.14  399.78   13.14  389.84   12.98  403.84   16.22
  425.34   16.64  409.71   16.34  375.18   15.63  386.26   15.86  385.60   15.85
  411.66   16.37  381.70   15.77  390.82   15.95  371.28   15.55  400.59   16.15
  394.07   16.02  386.91   15.88  409.71   16.34  402.54   16.19  384.95   15.83
  414.92   16.44  390.16   15.94  379.74   15.73  405.80   16.26  390.16   15.94
  398.63   16.11  401.24   16.17  389.51   15.93  414.26   16.43  392.77   15.99
  401.89   16.18  362.81   15.37  411.01   16.36  381.05   15.75  400.59   16.15
  412.31   16.39  428.59   16.71  466.37   17.43  500.90   18.06  573.20   19.32
  588.18   19.57  650.06   20.58  657.87   20.70  628.56   20.23  566.03   19.20
  562.77   19.15  479.40   17.67  467.02   17.44  431.85   16.77  416.87   16.48
  384.95   15.83  402.54   16.19  364.76   15.41  407.89   13.19  399.36   13.05
  382.29   12.77  401.49   13.09  383.57   12.79  415.94   16.42  382.25   15.74
  386.78   15.83  415.29   16.40  428.90   16.67  399.74   16.09  428.25   16.66
  412.05   16.34  411.40   16.33  356.98   15.21  397.15   16.04  413.35   16.36
  399.74   16.09  384.19   15.78  384.19   15.78  408.16   16.26  387.43   15.84
  397.15   16.04  393.26   15.96  410.11   16.30  458.70   17.24  482.02   17.67
  517.01   18.30  592.16   19.59  649.82   20.52  728.86   21.73  765.79   22.27
  821.51   23.07  805.96   22.85  739.23   21.88  645.29   20.45  619.37   20.03
  561.06   19.07  544.22   18.78  559.77   19.04  539.68   18.70  491.09   17.84
  483.97   17.71  487.85   17.78  459.35   17.25  430.19   16.69  448.98   17.06
  456.75   17.20  452.22   17.12  482.02   17.67  533.20   18.59  617.43   20.00
  745.71   21.98  858.44   23.58  912.50   19.50 1016.67   20.58 1045.83   20.87
 1105.42   21.46 1226.67   22.61 1517.12   30.19 1925.53   34.01 2510.51   38.83
 3244.44   44.14 3637.24   46.74 3866.67   48.19 3717.12   47.25 3390.39   45.13
 2761.56   40.73 2155.56   35.98 1596.40   30.96 1136.34   26.12  837.84   22.43
  652.85   19.80  520.12   17.67  451.65   16.47  416.82   15.82  412.01   15.73
  406.61   15.63  401.80   15.53  381.98   15.15  379.58   15.10  414.41   15.78
  393.99   15.38  365.17   14.81  393.39   15.37  384.98   15.21  383.18   15.17
  400.60   15.51  373.57   14.98  374.77   15.00  412.01   15.73  380.78   15.12
  392.79   15.36  383.78   15.18  437.24   16.21  438.44   16.23  477.48   16.93
  474.47   16.88  527.93   17.81  601.80   19.01  679.28   20.20  750.15   21.23
  763.96   21.42  775.38   21.58  732.73   20.98  690.69   20.37  616.82   19.25
  541.92   14.82  492.91   14.13  451.60   13.52  400.97   12.74  413.12   12.94
  390.44   12.58  377.60   15.08  378.80   15.10  401.08   15.54  381.21   15.15
  361.34   14.75  402.89   15.58  382.41   15.18  401.69   15.55  394.46   15.41
  394.46   15.41  385.43   15.24  414.33   15.80  446.25   16.39  475.76   16.93
  523.34   17.75  605.84   19.10  742.55   21.15  940.68   23.80 1150.26   26.32
 1323.10   28.23 1498.34   30.04 1486.30   29.92 1552.54   30.58 1349.59   28.51
 1226.74   27.18  921.41   23.56  804.58   22.01  661.25   19.96  526.95   17.81
  454.68   16.55  418.55   15.88  372.78   14.98  400.48   15.53  401.08   15.54
  397.47   15.47  403.49   15.59  391.45   15.35  381.81   15.16  375.79   15.04
  426.98   16.04  375.79   15.04  376.99   15.07  381.81   15.16  369.77   14.92
  376.39   15.06  389.04   15.31  380.01   15.13  407.11   15.66  375.14   12.35
  396.30   12.70  396.30   12.70  408.91   12.90  415.01   12.99  412.98   12.96
  400.31   15.81  452.77   16.82  467.14   17.08  442.15   16.62  453.40   16.83
  425.29   16.30  433.41   16.45  427.79   16.35  388.45   15.58  357.85   14.95
  367.84   15.16  372.21   15.25  409.06   15.98  399.69   15.80  403.43   15.87
  359.72   14.99  367.84   15.16  368.46   15.17  384.70   15.50  379.70   15.40
  385.32   15.51  395.32   15.71  408.43   15.97  418.42   16.17  370.34   15.21
  376.58   15.34  370.96   15.22  410.93   16.02  391.57   15.64  370.34   15.21
  403.43   15.87  401.56   15.84  397.19   15.75  381.58   15.44  398.44   15.77
  379.08   15.39  417.80   16.15  413.43   16.07  406.56   15.93  433.41   16.45
  445.28   16.68  444.03   16.65  489.62   17.49  543.33   18.42  588.29   19.17
  671.35   20.48  712.57   21.10  871.19   23.33  966.72   20.28 1189.58   22.49
 1490.70   25.18 1949.18   28.79 2470.18   32.41 3093.88   44.72 3513.98   47.66
 3619.97   48.37 3502.34   47.58 3246.40   45.81 2695.75   41.74 2109.55   36.92
 1702.38   33.17 1301.66   29.00  994.02   25.35  769.75   22.30  599.13   19.68
  447.89   17.01  456.29   17.17  444.66   16.95  416.87   16.41  390.37   15.88
  387.78   15.83  404.59   16.17  396.83   16.01  392.31   15.92  381.97   15.71
  396.19   16.00  386.49   15.80  383.91   15.75  374.21   15.55  401.36   16.11
  388.43   15.84  385.20   15.78  349.65   15.03  387.78   15.83  380.68   15.69
  382.61   15.73  410.41   16.29  382.61   15.73  411.70   16.31  384.55   15.77
  389.08   15.86  394.89   15.98  383.26   15.74  370.33   15.47  407.82   16.24
  392.31   15.92  391.02   15.90  378.09   15.63  395.54   15.99  363.87   15.34
  410.41   16.29  377.44   15.62  384.03   13.13  424.85   13.81  431.14   13.91
  458.95   14.35  469.27   14.51  488.91   18.48  555.96   19.71  664.92   21.55
  787.15   23.45  987.60   26.26 1185.96   28.78 1540.07   32.80 1800.59   35.46
 1938.19   36.79 1987.08   37.25 1927.71   36.69 1720.97   34.67 1493.28   32.30
 1245.33   29.49 1053.95   27.13  867.47   24.61  771.08   23.21  690.76   21.96
  634.89   21.06  581.81   20.16  525.93   19.17  516.85   19.00  467.96   18.08
  451.20   17.75  445.61   17.64  428.15   17.29  405.80   16.84  402.30   16.76
  382.75   16.35  378.56   16.26  405.80   16.84  389.73   16.50  377.16   16.23
  379.26   16.28  399.51   16.70  392.53   16.56  390.43   16.51  412.08   16.97
  406.50   16.85  369.48   16.06  390.43   16.51  409.29   16.91  401.61   16.75
  420.46   17.14  393.92   16.59  435.83   17.45  440.02   17.53  473.55   18.19
  481.93   18.35  502.88   18.74  543.10   15.45  624.01   16.57  673.26   17.21
  751.10   18.17  959.97   25.10 1141.73   27.37 1447.51   30.82 1788.71   34.26
 2108.27   37.19 2488.85   40.41 2530.18   40.75 2523.62   40.69 2354.33   39.30
 2083.33   36.97 1694.88   33.35 1364.17   29.92 1114.17   27.04  884.51   24.09
  776.90   22.58  633.86   20.39  540.68   18.84  523.62   18.54  570.87   19.35
  611.55   20.03  719.16   21.72  862.20   23.79 1021.65   25.89 1368.77   29.97
 1730.31   33.70 2367.45   39.41 2851.05   43.25 3299.87   46.53 3647.64   48.92
 3723.75   49.43 3622.05   48.75 3219.82   45.96 2828.08   43.08 2379.27   39.51
 1883.86   35.16 1603.02   32.43 1280.84   28.99 1181.76   27.85 1087.93   26.72
 1110.89   27.00 1043.31   26.16 1040.68   26.13  992.78   25.52 1009.84   25.74
  891.08   24.18  845.14   23.55  765.75   22.42  687.01   21.23  599.08   19.83
  520.09   14.95  477.97   14.33  451.75   13.93  423.38   13.49  418.65   13.41
  425.60   16.09  432.89   16.22  398.24   15.56  460.86   16.74  469.98   16.90
  536.25   18.06  594.62   19.01  676.09   20.27  712.57   20.81  768.51   21.62
  849.98   22.73  830.52   22.47  795.26   21.99  777.63   21.74  654.81   19.95
  627.45   19.53  576.38   18.72  505.85   17.54  459.64   16.72  421.34   16.01
  409.79   15.78  403.10   15.66  390.94   15.42  390.94   15.42  375.74   15.11
  380.60   15.21  388.51   15.37  369.66   14.99  401.88   15.63  411.00   15.81
  372.70   15.05  390.33   15.41  383.64   15.27  367.84   14.95  379.39   15.19
  384.25   15.28  376.96   15.14  359.93   14.79  357.50   14.74  384.25   15.28
  345.95   14.50  376.96   15.14  376.96   15.14  373.31   15.07  367.84   14.95
  373.31   15.07  378.78   15.18  363.58   14.87  386.08   15.32  398.18   12.69
  386.85   12.51  373.90   12.30  384.02   12.47  395.35   12.65  394.94   12.64
  418.66   16.03  387.35   15.42  384.90   15.37  395.33   15.58  387.35   15.42
  376.92   15.21  376.92   15.21  365.87   14.99  369.55   15.06  379.37   15.26
  372.62   15.12  384.28   15.36  410.68   15.88  408.84   15.84  431.55   16.28
  461.63   16.83  516.88   17.81  599.75   19.19  658.69   20.11  738.49   21.29
  799.26   22.15  924.49   23.82  912.83   23.67  934.93   23.96  896.26   23.46
  829.96   22.57  782.69   21.92  735.42   21.25  607.73   19.32  569.67   18.70
  535.30   18.13  454.88   16.71  463.47   16.87  451.20   16.64  446.90   16.56
  448.13   16.59  484.35   17.24  484.96   17.25  510.74   17.71  523.63   17.93
  578.88   18.85  560.47   18.55  551.26   18.40  535.30   18.13  505.22   17.61
  475.14   17.08  447.51   16.57  437.08   16.38  418.66   16.03  436.39   13.25
  393.72   12.59  390.10   12.53  359.10   12.02  407.37   15.56  370.50   14.84
  375.26   14.94  347.31   14.37  383.59   15.10  359.20   14.62  358.61   14.60
  372.29   14.88  375.26   14.94  396.67   15.36  363.37   14.70  369.91   14.83
  369.91   14.83  358.01   14.59  346.71   14.36  355.04   14.53  373.48   14.90
  381.21   15.06  377.64   14.99  361.58   14.66  363.37   14.70  346.12   14.35
  375.26   14.94  343.74   14.30  365.15   14.74  391.91   15.27  368.72   14.81
  370.50   14.84  375.26   14.94  372.29   14.88  368.12   14.80  366.34   14.76
  375.85   14.95  378.83   15.01  355.63   14.54  389.53   15.22  382.40   15.08
  375.26   14.94  343.15   14.29  396.07   15.35  383.59   15.10  376.45   14.96
  415.70   15.72  402.02   15.46  425.81   15.91  458.52   16.51  506.69   17.36
  466.25   16.65  543.56   17.98  581.03   18.59  665.65   16.44  726.17   17.17
  836.63   18.43  942.23   19.56 1033.78   25.14 1108.97   26.04 1247.13   27.61
 1321.72   28.43 1381.63   29.06 1348.01   28.71 1297.88   28.17 1221.46   27.33
 1110.81   26.06  983.65   24.52  818.58   22.37  726.88   21.08  644.96   19.86
  580.77   18.84  522.08   17.87  429.16   16.20  416.93   15.97  419.38   16.01
  378.42   15.21  413.27   15.89  382.70   15.30  394.31   15.53  374.14   15.12
  374.14   15.12  339.91   14.42  390.04   15.44  379.64   15.23  383.31   15.31
  369.86   15.04  397.98   15.60  418.16   15.99  419.38   16.01  441.39   16.43
  477.46   17.08  468.90   16.93  500.69   17.50  545.32   18.26  561.21   18.52
  548.98   18.32  559.99   18.50  546.54   18.28  545.32   18.26  536.15   18.10
  493.96   17.38  470.12   16.95  473.79   17.02  412.65   15.88  396.15   15.56
  402.87   15.69  413.50   12.95  417.15   13.00  413.90   12.95  394.85   12.65
  433.77   13.26  436.61   13.30  452.30   16.75  492.01   17.47  538.55   18.28
  558.40   18.61  581.36   18.99  635.95   19.86  640.30   19.93  652.71   20.12
  671.94   20.42  639.68   19.92  621.68   19.64  542.89   18.35  502.56   17.66
  504.42   17.69  472.16   17.12  461.61   16.92  454.79   16.80  404.53   15.84
  397.08   15.70  402.67   15.81  393.36   15.62  398.32   15.72  387.78   15.51
  380.95   15.37  339.38   14.51  392.12   15.60  390.26   15.56  376.61   15.29
  377.23   15.30  371.65   15.19  367.92   15.11  400.81   15.77  379.09   15.34
  364.82   15.04  397.70   15.71  383.43   15.42  373.51   15.22  379.71   15.35
  404.53   15.84  433.07   16.39  455.41   16.81  482.08   17.29  475.88   17.18
  495.73   17.54  539.17   18.29  547.85   18.44  591.90   19.16  614.86   19.53
  680.81   16.70  737.78   17.39  772.21   17.79  841.48   18.57  873.04   18.92
  909.52   19.31  884.87   23.09  937.91   23.78  874.62   22.96  782.40   21.72
  737.79   21.09  737.19   21.08  660.64   19.96  600.36   19.02  553.35   18.26
  542.50   18.08  548.52   18.18  541.29   18.06  555.15   18.29  606.39   19.12
  624.47   19.40  664.26   20.01  722.12   20.86  785.41   21.76  830.02   22.37
  843.88   22.55  848.10   22.61  869.80   22.90  764.32   21.46  749.25   21.25
  726.34   20.92  621.46   19.35  606.99   19.13  550.93   18.22  535.26   17.96
  474.98   16.92  487.64   17.14  437.01   16.23  418.93   15.89  455.70   16.57
  462.93   16.70  467.75   16.79  443.64   16.35  455.09   16.56  471.37   16.86
  465.34   16.75  474.98   16.92  482.82   17.06  514.77   17.61  473.78   16.90
  492.47   17.23  546.11   18.14  573.24   18.59  607.65   15.51  678.95   16.40
  753.02   17.27  813.23   17.95 1016.04   20.06 1089.72   20.78 1315.03   27.87
 1493.95   29.70 1650.43   31.22 1778.57   32.41 1785.06   32.47 1892.53   33.43
 1726.60   31.93 1550.63   30.26 1503.99   29.80 1330.38   28.03 1137.88   25.92
 1018.60   24.53  896.37   23.01  792.44   21.63  634.78   19.36  569.83   18.34
  555.06   18.10  492.47   17.05  449.37   16.29  406.26   15.49  400.94   15.39
  380.87   15.00  381.46   15.01  364.33   14.67  384.41   15.07  396.81   15.31
  383.23   15.04  361.97   14.62  369.65   14.77  384.41   15.07  389.73   15.17
  357.25   14.52  372.01   14.82  395.04   15.27  369.06   14.76  379.69   14.97
  351.34   14.40  370.24   14.79  386.77   15.11  366.11   14.70  365.52   14.69
  397.40   15.32  380.28   14.99  361.38   14.61  367.88   14.74  389.73   15.17
  361.38   14.61  355.48   14.49  372.60   14.83  396.89   12.51  398.46   12.53
  376.79   12.19  370.09   12.08  372.45   12.12  365.66   14.63  356.88   14.45
  399.01   15.28  390.81   15.12  390.23   15.11  380.87   14.93  365.07   14.61
  342.26   14.15  394.32   15.19  373.26   14.78  393.15   15.17  383.79   14.98
  379.11   14.89  375.02   14.81  407.20   15.43  376.77   14.85  386.13   15.03
  391.98   15.14  415.39   15.59  391.40   15.13  423.58   15.74  440.54   16.05
  493.20   16.99  488.52   16.91  520.70   17.45  579.79   18.42  623.67   19.10
  674.56   19.87  746.53   20.90  867.05   22.52  908.00   23.05 1104.58   25.42
 1234.46   26.87 1353.23   28.14 1519.38   29.81 1541.03   30.03 1590.17   30.50
 1623.52   30.82 1611.82   30.71 1622.35   30.81 1545.12   30.07 1339.77   28.00
 1224.51   26.77 1171.27   26.18  955.97   23.65  865.29   22.50  777.53   21.33
  721.95   20.55  671.04   16.34  611.77   15.60  582.34   15.22  596.66   15.41
  573.59   15.10  595.09   19.00  599.94   19.08  627.84   19.52  650.89   19.87
  681.83   20.34  682.44   20.35  666.06   20.10  666.67   20.11  642.40   19.74
  661.81   20.04  595.69   19.01  555.05   18.35  555.66   18.36  511.98   17.62
  502.88   17.47  484.08   17.14  453.14   16.58  425.24   16.06  411.89   15.81
  435.55   16.25  392.48   15.43  383.38   15.25  379.74   15.18  389.44   15.37
  410.07   15.77  351.23   14.60  370.03   14.98  374.28   15.07  370.03   14.98
  368.82   14.96  370.64   14.99  370.03   14.98  363.97   14.86  384.59   15.27
  363.36   14.85  371.85   15.02  385.20   15.29  396.12   15.50  436.76   16.28
  434.94   16.24  457.99   16.67  447.68   16.48  487.72   17.20  528.36   17.90
  563.54   18.49  594.48   18.99  645.44   19.79  701.24   20.62  814.07   22.22
  909.92   23.49 1005.53   20.11 1123.38   21.26 1246.05   22.39 1320.06   23.04
 1366.31   23.44 1379.00   28.98 1351.60   28.69 1327.85   28.43 1256.62   27.66
 1159.21   26.57 1050.23   25.29 1002.74   24.71  938.81   23.91  795.74   22.01
  687.98   20.47  626.48   19.53  611.87   19.30  533.33   18.02  515.07   17.71
  468.19   16.88  452.97   16.61  406.09   15.72  413.39   15.86  403.04   15.66
  390.26   15.41  383.56   15.28  410.96   15.82  393.91   15.49  401.22   15.63
  404.26   15.69  438.36   16.34  425.57   16.10  420.70   16.00  469.41   16.91
  465.75   16.84  451.14   16.57  546.12   18.23  491.93   17.31  539.42   18.12
  568.65   18.61  639.27   19.73  658.14   20.02  646.58   19.84  682.50   20.38
  686.15   20.44  703.81   20.70  714.76   20.86  722.68   20.98  669.10   20.18
  691.63   20.52  675.19   20.27  683.11   20.39  701.98   20.67  737.29   21.19
  749.50   17.24  803.01   17.84  888.62   18.77  944.11   19.34 1044.09   24.65
 1040.59   24.61 1108.69   25.40 1159.90   25.98 1204.13   26.47 1253.60   27.01
 1229.16   26.75 1203.55   26.47 1161.65   26.00 1140.11   25.76 1059.80   24.84
  965.52   23.70  944.57   23.45  846.79   22.20  745.53   20.83  696.64   20.14
  666.38   19.69  625.05   19.07  588.39   18.51  520.30   17.40  526.70   17.51
  485.96   16.82  464.43   16.44  418.45   15.61  412.05   15.49  417.87   15.59
  404.48   15.34  404.48   15.34  418.45   15.61  381.78   14.91  392.84   15.12
  380.62   14.88  384.11   14.95  382.95   14.93  385.28   14.97  419.61   15.63
  390.51   15.08  403.90   15.33  373.64   14.75  402.15   15.30  397.50   15.21
  427.76   15.78  440.56   16.01  431.83   15.85  508.08   17.20  502.26   17.10
  500.51   17.07  561.62   18.08  557.54   18.01  568.60   18.19  606.06   15.55
  602.47   15.50  582.14   15.24  627.59   15.82  588.12   15.31  560.99   18.33
  608.29   19.08  569.97   18.47  565.78   18.40  537.64   17.94  521.48   17.67
  531.66   17.84  561.59   18.34  572.97   18.52  579.55   18.63  629.25   19.41
  659.78   19.88  715.46   20.70  741.21   21.07  817.24   22.12  882.50   22.99
 1001.65   24.49 1086.66   25.51 1211.20   26.93 1428.53   29.25 1631.49   31.25
 1861.40   33.38 2056.58   35.09 2338.57   37.42 2523.57   38.87 2639.72   39.75
 2712.17   40.30 2664.27   39.94 2730.13   40.43 2598.41   39.44 2541.54   39.01
 2402.04   37.92 2241.58   36.63 2030.23   34.86 1805.72   32.88 1586.59   30.82
 1369.85   28.64 1174.67   26.52 1056.13   25.15  921.42   23.49  850.77   22.57
  768.15   21.45  672.95   20.07  610.09   19.11  523.87   17.71  474.18   16.85
  487.95   17.09  442.45   16.28  432.87   16.10  427.60   13.25  432.94   13.34
  418.16   13.11  456.36   13.69  440.34   13.45  442.08   16.87  472.97   17.45
  475.55   17.49  497.43   17.89  537.97   18.61  543.11   18.69  564.99   19.07
  560.49   18.99  591.38   19.51  577.86   19.28  550.84   18.83  578.51   19.29
  616.47   19.92  619.05   19.96  558.56   18.96  539.25   18.63  555.98   18.91
  516.09   18.22  454.95   17.11  513.51   18.18  487.13   17.71  477.48   17.53
  463.96   17.28  461.39   17.23  455.60   17.12  404.76   16.14  431.79   16.67
  413.13   16.30  407.98   16.20  380.31   15.64  383.53   15.71  399.61   16.04
  396.40   15.97  357.14   15.16  398.33   16.01  400.26   16.05  410.55   16.25
  420.85   16.46  429.21   16.62  435.01   16.73  437.58   16.78  418.28   16.41
  443.37   16.89  447.23   16.96  483.91   17.65  512.87   18.17  532.18   18.51
  548.91   18.79  571.72   15.40  601.58   15.79  626.87   16.12  609.04   15.89
  621.89   16.06  665.84   16.61  664.51   20.24  699.03   20.76  702.11   20.80
  693.48   20.68  647.87   19.98  677.45   20.44  680.54   20.48  626.29   19.65
  638.00   19.83  618.28   19.52  584.99   18.99  586.84   19.02  574.51   18.82
  638.62   19.84  621.98   19.58  599.78   19.23  618.28   19.52  668.82   20.30
  731.08   21.23  760.06   21.65  821.08   22.50  857.45   22.99  962.86   24.36
 1052.24   25.47 1171.83   26.88 1291.42   28.21 1351.21   28.86 1419.63   29.58
 1475.73   30.16 1595.93   31.37 1615.04   31.55 1584.84   31.26 1547.85   30.89
 1589.77   31.30 1562.03   31.03 1478.19   30.19 1401.76   29.40 1250.12   27.76
 1225.46   27.48 1104.02   26.09 1007.86   24.93  956.08   24.28  871.63   23.18
  832.79   22.66  747.73   21.47  722.45   21.10  684.85   20.55  616.43   19.49
  631.84   19.74  563.10   15.05  578.38   15.25  534.54   14.66  524.89   14.53
  509.60   14.32  529.62   17.54  480.84   16.71  527.29   17.50  561.56   18.06
  567.94   18.16  616.14   18.92  585.95   18.45  660.86   19.59  670.15   19.73
  699.19   20.15  785.71   21.36  797.91   21.53  858.30   22.33  853.66   22.27
  930.31   23.24  975.61   23.80  939.02   23.35  954.70   23.55  982.00   23.88
  966.90   23.70  956.45   23.57  947.74   23.46  901.28   22.88  848.43   22.20
  776.42   21.23  765.97   21.09  710.80   20.32  689.90   20.02  631.24   19.15
  617.89   18.94  559.81   18.03  503.48   17.10  475.03   16.61  488.39   16.84
  457.61   16.30  440.19   15.99  440.19   15.99  436.12   15.91  409.99   15.43
  404.76   15.33  401.86   15.28  407.08   15.38  401.28   15.27  380.95   14.87
  379.21   14.84  403.60   15.31  393.73   15.12  393.15   15.11  390.24   15.05
  396.26   12.36  378.53   12.08  402.43   12.45  392.41   12.30  385.89   14.91
  416.99   15.50  423.33   15.61  468.25   16.42  440.60   15.93  438.30   15.89
  464.22   16.35  456.73   16.22  519.51   17.30  536.21   17.57  506.84   17.09
  581.14   18.30  565.01   18.04  651.40   19.37  704.97   20.15  761.41   20.94
  792.51   21.36  813.25   21.64  870.27   22.39  949.75   23.39 1002.74   24.03
 1044.20   24.52 1068.97   24.81 1078.76   24.93 1070.12   24.83 1090.86   25.07
 1058.60   24.69 1087.40   25.03 1055.15   24.65 1063.79   24.75  979.12   23.75
  964.72   23.57  888.70   22.62  832.25   21.89  787.33   21.29  753.35   20.83
  678.47   19.77  660.62   19.51  635.28   19.13  644.49   19.27  564.43   18.03
  595.54   18.52  557.52   17.92  525.85   17.40  529.30   17.46  532.76   17.52
  517.21   17.26  520.66   17.32  514.90   17.22  533.74   14.72  589.35   15.47
  568.65   15.19  601.12   15.62  628.31   15.97  692.44   16.76  730.11   21.36
  746.99   21.61  797.62   22.33  835.13   22.85  903.89   23.77  920.77   23.99
  963.28   24.54 1023.91   25.30  995.78   24.95 1035.16   25.44 1135.80   26.65
 1090.80   26.11 1065.17   25.80 1067.67   25.83 1040.79   25.51 1058.29   25.72
  963.90   24.55 1003.28   25.04  958.27   24.47  948.27   24.35  903.89   23.77
  887.01   23.55  870.14   23.32  870.14   23.32  875.76   23.40  822.00   22.67
  852.01   23.08  860.76   23.20  939.52   24.23  938.90   24.23 1005.16   25.07
 1036.41   25.45 1084.54   26.04 1141.43   26.71 1147.68   26.78 1146.43   26.77
 1192.69   27.30 1258.95   28.05 1207.69   27.48 1226.44   27.69 1215.19   27.56
 1172.68   27.07 1209.56   27.50 1115.80   26.41 1144.55   26.75 1110.80   26.35
 1010.78   25.14 1010.16   25.13  922.02   24.01  870.14   23.32  823.88   22.69
  733.24   21.41  691.36   20.79  616.35   19.63  584.19   28.34  530.58   27.01
  529.21   26.97  514.09   26.58  476.98   25.61  496.22   26.12  471.48   25.46
  427.49   24.24  400.00   23.45  413.75   23.85  386.25   23.04  430.24   24.32
  387.63   23.08  446.74   24.78  401.37   23.49  435.74   24.47  417.87   23.97
  394.50   23.29  432.99   24.40  449.48   24.86  442.61   24.67  424.74   24.16
  459.11   25.12  482.47   25.75  460.48   25.16  489.35   25.94  496.22   26.12
  516.84   26.65  476.98   25.61  518.21   26.69  538.83   27.22  512.71   26.55
  563.57   27.83  607.56   28.90  542.96   27.32  560.82   27.76  548.45   27.46
  599.31   28.70  570.45   28.00  562.20   27.80  501.72   26.26  562.20   27.80
  504.47   26.33  533.33   27.08  512.71   26.55  501.72   26.26  448.11   24.82
  505.84   26.37  464.60   25.27  457.73   25.08  500.34   26.23  453.61   24.97
  483.85   25.79                                                                