                                                                                
BANK 1 2431 487 CONST  602.500    5.000 0 0 ESD                                 
  563.97   25.30  510.64   24.07  537.87   24.71  553.76   25.07  533.33   24.60
  541.28   24.78  560.57   25.22  487.94   23.53  620.71   26.54  566.24   25.35
  573.05   25.50  560.57   25.22  531.06   24.55  567.38   25.37  583.26   25.73
  625.25   26.64  540.14   24.76  559.43   25.20  556.03   25.12  579.86   25.65
  574.18   25.53  537.87   24.71  532.20   24.57  582.13   25.70  579.86   25.65
  615.04   26.42  580.99   25.68  537.87   24.71  542.41   24.81  608.23   26.27
  532.20   24.57  594.61   25.98  604.82   26.20  560.57   25.22  574.18   25.53
  594.61   25.98  599.15   26.07  573.05   25.50  585.53   25.78  544.68   24.86
  624.11   26.61  542.41   24.81  562.84   25.27  642.27   27.00  612.77   26.37
  558.30   25.17  602.55   26.15  545.82   24.89  542.41   24.81  551.49   25.02
  595.74   26.00  569.65   25.42  585.56   18.19  559.56   17.78  571.43   17.97
  576.52   18.05  572.56   17.99  566.34   17.89  546.56   17.58  540.34   17.48
  569.73   17.94  558.43   17.77  551.65   17.66  567.47   17.91  561.82   17.82
  546.56   17.58  610.99   18.58  555.04   17.71  557.30   17.75  569.17   17.94
  557.30   17.75  534.12   17.38  600.25   18.42  547.69   17.59  581.60   18.13
  581.04   18.12  542.04   17.50  552.78   17.68  532.43   17.35  593.47   18.31
  506.99   16.93  540.34   17.48  553.91   17.69  532.43   17.35  546.56   17.58
  523.39   17.20  534.69   17.38  522.82   17.19  529.04   17.29  538.65   17.45
  527.91   17.27  507.56   16.94  513.21   17.03  519.99   17.14  510.95   16.99
  519.99   17.14  534.12   17.38  492.86   16.69  494.56   16.72  526.21   17.25
  526.21   17.25  518.30   17.12  505.30   16.90  538.08   17.44  496.82   16.76
  496.51   13.60  497.62   13.62  490.91   13.53  494.27   13.57  507.32   13.75
  514.02   13.84  475.26   13.31  481.22   13.39  527.89   17.12  499.03   16.64
  496.25   16.60  508.47   16.80  492.92   16.54  475.16   16.24  481.27   16.34
  487.93   16.46  476.82   16.27  510.69   16.84  470.72   16.16  486.82   16.44
  467.94   16.12  483.49   16.38  446.85   15.75  495.70   16.59  470.16   16.16
  482.93   16.37  494.03   16.56  451.85   15.84  506.24   16.76  514.02   16.89
  500.14   16.66  450.18   15.81  476.27   16.26  476.82   16.27  465.72   16.08
  442.41   15.67  475.16   16.24  460.73   15.99  496.25   16.60  459.06   15.96
  443.52   15.69  448.52   15.78  446.85   15.75  445.18   15.72  497.36   16.62
  438.52   15.60  442.96   15.68  439.08   15.61  436.30   15.56  467.94   16.12
  480.71   16.34  459.62   15.97  460.17   15.98  464.06   16.05  441.30   15.65
  458.31   13.05  460.54   13.08  465.37   13.15  464.25   13.13  433.80   12.69
  445.00   15.70  474.92   16.22  448.88   15.77  487.12   16.43  466.06   16.07
  457.19   15.92  448.32   15.76  463.84   16.03  456.64   15.91  448.88   15.77
  466.06   16.07  418.40   15.23  449.43   15.78  451.09   15.81  456.64   15.91
  454.42   15.87  440.57   15.63  469.38   16.13  450.54   15.80  467.72   16.10
  449.43   15.78  459.41   15.96  441.12   15.64  430.04   15.44  461.07   15.98
  456.08   15.90  448.88   15.77  437.79   15.58  445.55   15.71  444.44   15.69
  444.44   15.69  463.29   16.02  427.27   15.39  469.38   16.13  467.72   16.10
  441.12   15.64  457.74   15.93  426.16   15.37  433.92   15.51  448.32   15.76
  470.49   16.15  438.90   15.60  422.28   15.30  435.58   15.54  442.78   15.66
  423.94   15.33  409.53   15.06  453.31   15.85  447.22   15.74  442.78   15.66
  415.86   12.40  465.39   13.12  421.40   12.48  435.89   15.60  438.12   15.64
  453.75   15.91  414.12   15.20  431.42   15.52  431.98   15.53  461.56   16.05
  434.77   15.58  451.51   15.87  438.68   15.65  409.66   15.12  437.56   15.63
  410.77   15.14  434.77   15.58  494.49   16.61  454.86   15.93  471.61   16.22
  497.84   16.67  501.19   16.72  459.89   16.02  517.37   16.99  496.72   16.65
  496.72   16.65  569.28   17.82  583.23   18.04  618.95   18.59  722.76   20.08
  755.13   20.53  857.26   21.87  937.63   22.88 1135.20   25.17 1379.66   27.75
 1686.62   30.68 1994.70   33.37 2189.48   34.96 2241.94   35.37 2199.53   35.04
 1927.72   32.80 1610.72   29.98 1218.36   26.08  857.26   21.87  622.30   18.64
  541.93   17.39  456.54   15.96  452.63   15.89  414.12   15.20  428.07   15.46
  463.23   16.08  429.75   15.49  403.52   15.01  416.35   15.24  442.39   13.06
  460.90   13.33  442.00   13.06  452.80   13.22  440.72   16.09  438.37   16.05
  446.01   16.19  430.15   15.90  448.95   16.24  436.61   16.02  465.40   16.54
  511.83   17.34  522.40   17.52  494.78   17.05  525.93   17.58  539.44   17.80
  635.82   19.33  636.40   19.34  726.90   20.67  847.95   22.32  997.80   24.21
 1157.04   26.08 1421.48   28.90 1778.76   32.33 2009.70   34.37 2236.52   36.25
 2168.94   35.70 2150.73   35.55 1799.32   32.52 1433.82   29.03 1065.96   25.03
  781.55   21.43  623.48   19.14  500.66   17.15  466.58   16.56  448.95   16.24
  453.06   16.32  448.36   16.23  438.37   16.05  420.74   15.72  461.88   16.47
  443.07   16.14  430.73   15.91  436.61   16.02  444.25   16.16  442.49   16.13
  453.06   16.32  431.32   15.92  413.69   15.59  417.22   15.66  431.91   15.93
  430.73   15.91  450.12   16.26  456.21   13.45  440.74   13.22  433.20   13.11
  424.87   12.98  449.47   13.35  419.72   12.90  431.48   16.32  483.33   17.27
  416.67   16.04  454.94   16.76  448.77   16.64  450.00   16.67  436.42   16.41
  430.86   16.31  421.60   16.13  440.12   16.48  468.52   17.01  470.37   17.04
  457.41   16.80  482.72   17.26  504.32   17.64  541.36   18.28  529.01   18.07
  629.63   19.71  675.31   20.42  778.40   21.92  821.60   22.52  858.02   23.01
  861.11   23.06  898.15   23.55  812.96   22.40  753.70   21.57  610.49   19.41
  564.20   18.66  483.33   17.27  457.41   16.80  446.91   16.61  434.57   16.38
  451.85   16.70  409.88   15.91  437.04   16.42  447.53   16.62  484.57   17.29
  406.79   15.85  433.33   16.36  414.20   15.99  445.06   16.57  454.94   16.76
  427.78   16.25  425.31   16.20  433.33   16.36  412.35   15.95  450.00   16.67
  410.49   15.92  427.36   13.45  448.12   13.78  448.96   13.79  446.00   13.74
  444.30   13.72  436.26   13.59  441.03   16.81  442.31   16.84  441.03   16.81
  426.92   16.54  425.64   16.52  442.31   16.84  421.15   16.43  425.00   16.51
  406.41   16.14  478.85   17.52  425.00   16.51  431.41   16.63  428.85   16.58
  457.69   17.13  435.26   16.70  441.67   16.83  426.28   16.53  434.62   16.69
  450.64   17.00  423.72   16.48  437.82   16.75  438.46   16.76  418.59   16.38
  441.03   16.81  430.77   16.62  418.59   16.38  425.00   16.51  468.59   17.33
  427.56   16.56  438.46   16.76  425.64   16.52  444.23   16.87  431.41   16.63
  391.03   15.83  437.82   16.75  435.26   16.70  416.67   16.34  405.13   16.12
  426.28   16.53  423.72   16.48  409.62   16.20  430.77   16.62  420.51   16.42
  387.82   15.77  406.41   16.14  414.74   16.31  393.59   15.88  439.10   16.78
  411.54   16.24  438.25   13.45  419.68   13.16  413.49   13.06  401.11   12.87
  463.14   16.99  422.63   16.23  436.96   16.50  417.02   16.12  413.28   16.05
  437.59   16.52  411.41   16.01  425.74   16.29  415.77   16.10  438.21   16.53
  417.64   16.13  422.00   16.22  437.59   16.52  412.03   16.03  445.07   16.66
  423.25   16.24  425.12   16.28  435.09   16.47  397.07   15.73  412.65   16.04
  414.52   16.07  407.04   15.93  450.05   16.75  407.67   15.94  430.11   16.37
  415.77   16.10  425.74   16.29  425.74   16.29  436.34   16.49  425.12   16.28
  429.48   16.36  414.52   16.07  394.58   15.68  413.28   16.05  396.45   15.72
  419.51   16.17  416.39   16.11  453.17   16.81  423.87   16.25  421.38   16.21
  423.87   16.25  425.74   16.29  402.68   15.84  395.82   15.71  417.02   16.12
  404.55   15.88  405.80   15.90  423.25   16.24  433.22   16.43  405.55   12.82
  404.74   12.81  438.77   13.33  401.90   12.76  414.87   12.96  405.85   15.33
  401.79   15.25  413.95   15.48  397.16   15.16  422.64   15.64  422.64   15.64
  409.32   15.39  409.32   15.39  411.06   15.43  427.85   15.74  446.37   16.08
  422.06   15.63  409.32   15.39  408.74   15.38  430.74   15.79  390.22   15.03
  411.64   15.44  401.79   15.25  403.53   15.28  412.79   15.46  426.69   15.72
  416.27   15.52  418.58   15.57  409.90   15.40  396.01   15.14  386.74   14.96
  399.48   15.21  413.95   15.48  456.22   16.25  401.79   15.25  379.22   14.82
  419.16   15.58  418.58   15.57  414.53   15.49  485.16   16.76  412.22   15.45
  442.32   16.00  433.64   15.84  430.16   15.78  430.74   15.79  407.01   15.35
  429.01   15.76  419.74   15.59  423.22   15.65  413.37   15.47  431.90   15.81
  420.32   15.60  395.43   15.13  408.16   15.37  399.48   15.21  411.28   12.67
  422.20   12.84  418.69   12.78  427.67   12.92  428.06   12.92  434.83   16.00
  411.30   15.56  435.42   16.01  413.65   15.60  445.43   16.19  423.65   15.79
  383.05   15.01  398.35   15.31  404.82   15.43  414.24   15.61  416.00   15.65
  430.13   15.91  387.76   15.11  414.24   15.61  443.07   16.15  384.82   15.05
  421.30   15.74  388.35   15.12  420.71   15.73  413.65   15.60  401.29   15.37
  426.01   15.83  406.00   15.46  399.53   15.33  426.60   15.84  403.65   15.41
  480.73   16.82  463.08   16.51  537.81   17.79  570.17   18.32  657.25   19.67
  802.59   21.73  969.11   23.88 1163.28   26.16 1313.92   27.81 1365.70   28.35
 1360.99   28.30 1159.16   26.12  963.81   23.81  774.35   21.35  610.18   18.95
  506.62   17.27  423.65   15.79  433.07   15.96  464.84   16.54  423.65   15.79
  410.12   15.53  428.36   15.88  418.80   12.76  433.18   12.97  409.09   12.61
  431.24   12.94  425.80   12.86  419.88   15.67  407.02   15.43  414.62   15.57
  423.39   15.74  390.06   15.10  387.72   15.06  423.39   15.74  410.53   15.49
  394.15   15.18  408.77   15.46  427.49   15.81  422.22   15.71  416.37   15.60
  424.56   15.76  426.32   15.79  442.11   16.08  401.17   15.32  414.62   15.57
  421.05   15.69  400.00   15.29  404.68   15.38  401.17   15.32  418.13   15.64
  412.87   15.54  443.27   16.10  445.03   16.13  398.83   15.27  421.05   15.69
  438.60   16.02  418.71   15.65  407.02   15.43  411.70   15.52  426.90   15.80
  413.45   15.55  442.69   16.09  440.94   16.06  456.73   16.34  473.10   16.63
  469.59   16.57  497.66   17.06  558.48   18.07  615.79   18.98  698.83   20.22
  702.34   20.27  789.47   21.49  869.01   22.54  966.08   23.77 1214.62   26.65
 1532.75   29.94 1836.80   26.80 2171.41   29.13 2414.54   30.72 2280.47   29.86
 2079.55   28.51 1660.51   25.48 1379.19   28.29 1023.94   24.38  725.00   20.51
  536.93   17.65  500.36   17.04  441.74   16.01  429.55   15.79  407.49   15.38
  424.32   15.69  413.29   15.49  428.38   15.77  430.71   15.81  436.51   15.92
  438.25   15.95  446.38   16.10  426.64   15.74  438.83   15.96  415.03   15.52
  467.28   16.47  521.84   17.40  500.94   17.05  679.73   19.86  884.05   22.65
 1297.92   27.45 1901.61   33.22 3079.96   42.28 4895.66   53.31 7375.42   65.43
10083.88   76.5113209.69   87.5715131.04   93.7215744.59   95.6014317.81   91.16
11813.67   82.81 8248.44   69.20 5289.22   55.41 2964.45   41.48 1615.44   30.62
  882.89   22.64  618.78   18.95  495.72   16.96  454.51   16.24  461.47   16.37
  485.85   16.79  493.40   16.92  539.25   17.69  608.33   18.79  729.22   17.35
  929.91   19.60 1195.83   22.22 1566.22   25.43 1844.95   27.60 2069.16   29.23
 2130.23   37.11 1954.44   35.54 1709.48   33.24 1259.01   28.53  928.10   24.49
  674.10   20.87  566.17   19.13  499.60   17.97  464.05   17.32  445.95   16.98
  445.31   16.96  451.77   17.09  431.09   16.69  434.32   16.75  407.82   16.24
  419.45   16.47  412.99   16.34  432.38   16.72  427.86   16.63  432.38   16.72
  458.23   17.21  422.04   16.52  420.75   16.49  480.21   17.62  517.69   18.29
  498.30   17.95  562.29   19.06  561.00   19.04  565.52   19.12  531.91   18.54
  577.15   19.31  520.92   18.35  478.91   17.59  497.01   17.92  469.87   17.43
  417.51   16.43  411.70   16.31  390.37   15.88  448.54   17.03  402.00   16.12
  427.21   16.62  422.04   16.52  389.08   15.86  396.83   16.01  431.73   16.70
  385.85   15.79  434.97   16.77  400.06   16.08  398.77   16.05  422.38   13.30
  405.20   13.03  404.78   13.02  416.51   13.21  382.57   12.66  423.21   16.59
  401.11   16.15  390.70   15.94  393.30   15.99  383.55   15.79  400.46   16.13
  410.86   16.34  423.21   16.59  384.20   15.80  410.21   16.33  395.90   16.04
  410.21   16.33  403.06   16.19  406.31   16.25  382.90   15.78  366.65   15.44
  366.00   15.43  364.70   15.40  400.46   16.13  371.20   15.53  388.75   15.90
  379.65   15.71  398.50   16.10  380.95   15.74  405.01   16.23  388.10   15.88
  405.66   16.24  437.51   16.86  373.15   15.58  414.76   16.42  354.30   15.18
  414.11   16.41  388.75   15.90  410.86   16.34  408.26   16.29  357.55   15.25
  380.95   15.74  403.71   16.20  378.35   15.68  400.46   16.13  377.05   15.66
  356.25   15.22  412.81   16.38  392.00   15.96  395.90   16.04  380.95   15.74
  388.10   15.88  386.15   15.84  405.66   16.24  390.47   12.92  389.19   12.89
  400.30   13.08  390.05   12.91  390.44   15.42  367.90   14.97  384.35   15.30
  397.75   15.57  384.35   15.30  367.90   14.97  397.14   15.55  409.93   15.80
  394.09   15.49  380.08   15.22  392.87   15.47  381.30   15.24  396.53   15.54
  386.17   15.34  404.45   15.70  369.73   15.01  386.17   15.34  399.57   15.60
  383.13   15.28  416.02   15.92  372.16   15.06  373.38   15.08  378.86   15.19
  361.20   14.83  375.21   15.12  381.91   15.25  383.74   15.29  383.74   15.29
  382.52   15.26  375.82   15.13  374.60   15.11  345.36   14.50  375.82   15.13
  386.78   15.35  394.70   15.51  458.66   16.71  503.12   17.51  560.99   18.49
  681.59   20.38  744.33   21.29  818.64   22.33  800.97   22.09  812.55   22.25
  760.77   21.53  653.57   19.95  588.40   18.93  467.79   16.88  469.62   16.91
  414.19   15.88  375.82   15.13  379.64   12.32  366.44   12.11  389.64   12.48
  388.44   12.47  375.64   12.26  376.99   15.07  372.78   14.98  371.57   14.96
  387.83   15.28  433.60   16.16  451.07   16.48  510.69   17.54  591.99   18.88
  775.07   21.60 1080.40   25.51 1347.79   28.49 1756.10   32.52 2070.46   35.31
 2322.79   37.40 2222.22   36.58 2010.84   34.80 1614.57   31.18 1229.75   27.21
  906.96   23.37  658.24   19.91  499.25   17.34  433.60   16.16  412.53   15.76
  361.34   14.75  374.59   15.02  342.07   14.35  373.38   15.00  392.05   15.37
  390.85   15.34  351.70   14.55  372.18   14.97  364.35   14.81  380.01   15.13
  382.41   15.18  389.64   15.32  377.60   15.08  363.75   14.80  378.80   15.10
  379.40   15.12  390.85   15.34  391.45   15.35  395.06   15.42  392.65   15.38
  384.22   15.21  375.19   15.03  364.35   14.81  373.98   15.01  366.15   14.85
  352.91   14.58  374.74   12.40  385.40   12.57  388.68   12.62  370.64   12.33
  386.63   12.59  349.53   14.61  371.52   15.07  366.03   14.96  365.41   14.94
  403.30   15.70  389.25   15.42  371.52   15.07  408.19   15.79  392.30   15.48
  426.52   16.14  459.52   16.76  449.74   16.58  568.90   18.64  557.90   18.46
  670.94   20.25  738.77   21.25  940.42   23.97 1307.67   28.27 1720.13   32.42
 2426.52   38.51 3187.29   44.13 3812.40   48.27 3984.72   49.34 3775.74   48.03
 3326.00   45.08 2681.33   40.48 1913.84   34.20 1423.16   29.49  931.26   23.85
  633.67   19.68  531.62   18.02  411.85   15.86  392.91   15.49  391.08   15.46
  381.30   15.26  400.24   15.64  381.30   15.26  373.36   15.10  378.86   15.22
  363.58   14.91  408.19   15.79  367.25   14.98  377.02   15.18  368.47   15.01
  360.53   14.84  395.97   15.56  377.02   15.18  391.08   15.46  367.25   14.98
  362.78   12.20  365.65   12.25  405.05   12.89  374.27   12.39  344.72   11.89
  374.35   15.40  386.38   15.64  382.58   15.57  419.95   16.31  430.09   16.51
  464.92   17.16  525.10   18.24  687.25   20.86  882.98   23.65 1154.08   27.04
 1453.68   30.34 1652.57   32.35 1849.56   34.23 1786.86   33.64 1563.90   31.47
 1271.89   28.38 1026.76   25.50  755.66   21.88  597.94   19.46  505.46   17.89
  422.49   16.36  406.65   16.05  391.45   15.75  392.08   15.76  361.68   15.14
  395.88   15.84  367.38   15.25  394.62   15.81  387.65   15.67  379.41   15.50
  397.15   15.86  407.28   16.06  411.08   16.14  447.19   16.83  515.60   18.07
  545.37   18.59  536.50   18.43  516.86   18.09  552.97   18.72  492.16   17.66
  485.19   17.53  466.19   17.18  417.42   16.26  393.35   15.78  370.55   15.32
  372.45   15.36  383.85   15.59  380.68   15.53  366.75   15.24  393.30   13.04
  382.50   12.86  374.28   12.72  366.50   12.59  377.31   12.77  373.88   15.61
  379.74   15.73  353.04   15.16  369.97   15.52  368.02   15.48  386.26   15.86
  365.41   15.43  393.42   16.01  376.49   15.66  368.02   15.48  379.74   15.73
  382.35   15.78  430.55   16.75  384.95   15.83  361.50   15.35  403.19   16.21
  383.00   15.79  377.79   15.69  386.91   15.88  368.67   15.50  364.76   15.41
  390.82   15.95  407.75   16.30  403.19   16.21  390.16   15.94  343.92   14.97
  400.59   16.15  358.90   15.29  375.83   15.65  400.59   16.15  373.88   15.61
  399.28   16.13  360.85   15.33  386.91   15.88  393.42   16.01  461.81   17.34
  476.14   17.61  528.25   18.55  610.98   19.95  668.30   20.86  630.52   20.27
  592.09   19.64  567.99   19.23  543.23   18.81  470.28   17.50  414.26   16.43
  421.43   16.57  407.10   16.28  351.08   15.12  392.11   12.93  387.41   12.86
  369.49   12.56  360.53   12.40  369.92   12.56  379.66   15.68  365.40   15.39
  373.83   15.56  359.57   15.26  387.43   15.84  421.77   16.53  390.67   15.91
  399.09   16.08  375.77   15.60  404.28   16.18  375.12   15.59  369.94   15.48
  386.14   15.82  378.36   15.66  391.97   15.94  382.25   15.74  384.84   15.79
  374.47   15.58  408.81   16.27  408.16   16.26  396.50   16.03  393.91   15.98
  437.32   16.83  435.37   16.79  526.08   18.46  614.84   19.96  701.65   21.32
  746.36   21.99  813.74   22.96  803.37   22.81  737.93   21.87  669.26   20.82
  605.77   19.81  535.80   18.63  536.44   18.64  528.02   18.50  531.91   18.56
  470.36   17.46  465.82   17.37  451.57   17.10  415.29   16.40  447.04   17.02
  423.06   16.56  445.09   16.98  443.15   16.94  459.35   17.25  506.64   18.12
  591.51   19.58  668.61   20.81  778.33   18.01  875.42   19.10  971.67   20.12
 1028.33   20.70 1084.17   21.25 1193.99   26.78 1393.99   28.93 1693.69   31.89
 2249.25   36.75 2853.45   41.40 3527.93   46.03 3900.90   48.40 3870.87   48.22
 3720.72   47.27 3147.75   43.48 2425.83   38.17 1866.07   33.48 1293.09   27.87
  971.77   24.16  682.88   20.25  563.36   18.39  456.46   16.56  409.61   15.68
  395.80   15.42  393.99   15.38  386.79   15.24  336.34   14.21  363.96   14.79
  362.76   14.76  360.96   14.72  344.14   14.38  377.18   15.05  350.75   14.51
  369.37   14.89  371.17   14.93  347.15   14.44  361.56   14.74  339.94   14.29
  368.17   14.87  417.42   15.83  366.37   14.83  377.18   15.05  381.38   15.13
  408.41   15.66  447.45   16.39  504.50   17.41  503.30   17.39  635.44   19.54
  676.88   20.16  787.99   21.75  747.75   21.19  774.77   21.57  702.70   20.54
  623.73   15.89  571.08   15.21  477.93   13.91  459.30   13.64  423.65   13.10
  397.73   12.69  357.12   14.67  358.93   14.70  380.61   15.14  379.40   15.12
  361.94   14.76  332.43   14.15  346.88   14.45  344.47   14.40  359.53   14.71
  374.59   15.02  385.43   15.24  360.73   14.74  376.99   15.07  401.08   15.54
  432.40   16.14  465.52   16.74  518.52   17.67  676.90   20.19  860.58   22.77
 1029.21   24.90 1282.75   27.79 1453.78   29.59 1573.02   30.78 1532.67   30.38
 1495.93   30.01 1302.62   28.01 1099.67   25.73  910.57   23.42  728.70   20.95
  540.80   18.05  452.88   16.51  429.99   16.09  408.31   15.68  386.63   15.26
  386.03   15.25  371.57   14.96  365.55   14.84  355.31   14.63  378.20   15.09
  329.42   14.08  351.70   14.55  357.12   14.67  391.45   15.35  364.35   14.81
  364.95   14.83  366.15   14.85  338.45   14.28  340.86   14.33  367.82   12.23
  336.49   11.70  366.60   12.21  363.75   12.17  376.77   12.38  357.64   12.06
  403.43   15.87  375.33   15.31  410.93   16.02  417.80   16.15  436.53   16.51
  432.79   16.44  435.28   16.49  400.94   15.82  396.57   15.74  360.97   15.01
  377.83   15.36  384.70   15.50  369.09   15.18  349.73   14.78  365.34   15.10
  337.86   14.53  341.61   14.61  347.85   14.74  332.24   14.40  363.47   15.07
  354.10   14.87  339.11   14.55  326.62   14.28  360.97   15.01  370.34   15.21
  357.22   14.94  361.59   15.03  365.34   15.10  371.58   15.23  400.31   15.81
  364.09   15.08  340.36   14.58  347.85   14.74  366.59   15.13  359.72   14.99
  379.70   15.40  368.46   15.17  387.20   15.55  374.08   15.28  416.55   16.13
  387.20   15.55  414.05   16.08  409.06   15.98  435.91   16.50  490.24   17.50
  505.85   17.77  547.07   18.48  663.23   20.35  678.36   16.99  829.35   18.78
  974.80   20.36 1230.83   22.88 1502.18   25.28 1993.21   35.89 2558.73   40.67
 3095.82   44.73 3520.44   47.70 3766.04   49.34 3683.96   48.80 3337.53   46.44
 2850.86   42.92 2198.74   37.70 1807.72   34.18 1335.92   29.38  993.38   25.34
  750.36   22.02  606.24   19.79  495.07   17.89  438.84   16.84  414.28   16.36
  418.16   16.44  350.30   15.05  378.09   15.63  363.23   15.32  379.38   15.66
  381.32   15.70  348.36   15.00  356.12   15.17  383.91   15.75  347.07   14.98
  373.57   15.54  361.29   15.28  349.65   15.03  373.57   15.54  379.38   15.66
  364.52   15.35  350.30   15.05  370.98   15.48  350.30   15.05  332.20   14.65
  399.42   16.07  388.43   15.84  358.70   15.23  367.75   15.42  353.53   15.12
  355.47   15.16  338.67   14.79  371.63   15.50  349.65   15.03  338.67   14.79
  383.91   15.75  341.90   14.87  350.83   12.55  375.06   12.97  376.40   12.99
  379.54   13.05  407.36   13.52  421.16   17.15  463.77   18.00  470.75   18.13
  569.23   19.94  649.55   21.30  804.61   23.71 1018.33   26.67 1259.30   29.66
 1517.02   32.55 1814.56   35.60 2008.73   37.46 2016.41   37.53 1950.06   36.91
 1822.94   35.68 1519.82   32.58 1267.68   29.76 1097.26   27.68  900.30   25.08
  771.08   23.21  704.03   22.17  595.08   20.39  541.30   19.44  495.90   18.61
  440.02   17.53  421.86   17.17  400.91   16.73  410.69   16.94  407.19   16.86
  349.22   15.62  354.81   15.74  368.78   16.05  363.19   15.93  372.27   16.12
  375.07   16.19  350.62   15.65  364.59   15.96  405.80   16.84  347.13   15.57
  384.84   16.39  359.00   15.83  347.13   15.57  384.15   16.38  386.94   16.44
  384.84   16.39  382.05   16.34  394.62   16.60  361.80   15.90  410.69   16.94
  386.94   16.44  437.23   17.48  431.40   13.77  473.18   14.42  515.39   15.05
  580.04   15.97  666.01   20.90  813.65   23.11  940.94   24.85 1187.66   27.92
 1471.78   31.08 1815.62   34.52 2173.23   37.76 2466.54   40.23 2612.20   41.40
 2501.97   40.52 2352.36   39.29 2073.49   36.89 1673.88   33.14 1393.70   30.24
 1125.33   27.17  893.04   24.21  720.47   21.74  597.11   19.79  540.03   18.82
  566.27   19.28  572.83   19.39  606.30   19.95  707.35   21.54  827.43   23.30
 1097.11   26.83 1461.29   30.97 1898.95   35.30 2454.72   40.13 3026.25   44.56
 3469.82   47.72 3838.58   50.19 3803.15   49.96 3583.33   48.49 3177.82   45.66
 2649.61   41.70 2280.84   38.69 1793.96   34.31 1464.57   31.00 1249.34   28.63
 1097.11   26.83 1109.58   26.98 1007.22   25.71 1110.24   26.99 1090.55   26.75
 1025.59   25.94 1040.03   26.12  936.35   24.79  843.83   23.53  759.19   22.32
  650.76   16.72  603.48   16.11  535.14   15.17  478.40   14.34  428.54   13.57
  388.51   15.37  390.33   15.41  411.61   15.82  412.83   15.84  415.87   15.90
  403.10   15.66  494.30   17.34  521.05   17.80  574.56   18.69  667.58   20.15
  722.30   20.96  774.59   21.70  817.75   22.30  828.70   22.45  805.59   22.13
  740.54   21.22  682.78   20.37  585.50   18.87  568.48   18.59  479.10   17.07
  468.76   16.88  425.60   16.09  384.86   15.30  353.85   14.67  358.72   14.77
  356.89   14.73  337.44   14.32  353.25   14.66  326.49   14.09  342.30   14.43
  353.85   14.67  354.46   14.68  340.48   14.39  333.79   14.25  373.92   15.08
  344.73   14.48  331.97   14.21  330.14   14.17  363.58   14.87  328.32   14.13
  355.68   14.71  352.03   14.63  334.40   14.26  357.50   14.74  342.30   14.43
  344.13   14.46  352.64   14.64  347.77   14.54  381.21   15.22  360.14   12.07
  349.62   11.89  364.19   12.14  345.57   11.83  373.09   12.29  367.43   12.19
  377.53   15.22  359.73   14.86  372.01   15.11  351.14   14.68  374.46   15.16
  330.26   14.24  368.94   15.05  358.50   14.83  375.69   15.19  362.80   14.92
  365.25   14.97  354.21   14.75  354.21   14.75  375.69   15.19  370.78   15.09
  407.61   15.82  413.14   15.93  445.06   16.53  461.63   16.83  512.58   17.74
  566.61   18.65  663.60   20.18  736.03   21.26  801.72   22.18  932.47   23.93
  958.26   24.25  929.40   23.89  952.73   24.18  884.59   23.30  806.63   22.25
  710.25   20.88  624.92   19.59  529.77   18.03  499.08   17.50  465.32   16.90
  434.62   16.33  429.71   16.24  432.78   16.30  442.60   16.48  476.37   17.10
  488.03   17.31  524.86   17.95  494.78   17.43  524.86   17.95  541.44   18.23
  534.07   18.11  461.63   16.83  470.23   16.99  423.57   16.13  387.28   12.49
  373.99   12.27  372.38   12.24  353.86   11.94  347.31   14.37  368.72   14.81
  345.52   14.33  333.63   14.09  359.20   14.62  321.74   13.83  346.12   14.35
  331.25   14.04  341.96   14.26  362.77   14.69  333.63   14.09  342.55   14.27
  344.93   14.32  328.87   13.99  344.93   14.32  332.44   14.06  340.17   14.22
  362.18   14.68  353.85   14.51  349.09   14.41  328.87   13.99  365.74   14.75
  330.06   14.01  360.99   14.65  326.49   13.93  343.74   14.30  341.96   14.26
  343.15   14.29  347.90   14.38  355.04   14.53  341.96   14.26  343.15   14.29
  353.26   14.49  327.68   13.96  351.47   14.46  359.80   14.63  344.93   14.32
  352.66   14.48  350.28   14.43  338.98   14.20  384.18   15.12  335.41   14.12
  355.04   14.53  341.96   14.26  382.99   15.09  352.07   14.47  400.24   15.43
  416.89   15.75  446.03   16.29  462.09   16.58  512.95   14.43  548.28   14.92
  669.31   16.49  726.17   17.17  819.81   22.39  861.38   22.95  953.69   24.15
 1141.37   26.42 1290.54   28.09 1270.98   27.87 1412.81   29.39 1432.98   29.60
 1369.40   28.93 1308.88   28.29 1107.75   26.02 1000.76   24.73  863.21   22.97
  738.50   21.25  638.85   19.76  563.66   18.56  474.40   17.03  457.28   16.72
  390.04   15.44  394.93   15.54  331.96   14.25  362.52   14.89  377.20   15.19
  355.19   14.74  361.30   14.86  350.91   14.65  344.80   14.52  366.19   14.96
  344.18   14.51  355.80   14.75  382.70   15.30  353.97   14.71  369.86   15.04
  371.69   15.07  408.99   15.81  421.82   16.06  447.50   16.54  476.23   17.06
  509.86   17.65  526.98   17.95  542.87   18.22  526.98   17.95  547.76   18.30
  548.37   18.31  506.80   17.60  489.07   17.29  464.01   16.84  451.78   16.62
  407.15   15.78  401.34   12.76  392.42   12.61  384.72   12.49  376.61   12.36
  362.83   12.13  381.07   12.43  362.96   15.01  389.02   15.54  436.79   16.46
  451.06   16.73  475.26   17.17  545.37   18.39  560.26   18.64  590.66   19.14
  611.14   19.47  611.76   19.48  608.03   19.42  591.90   19.16  589.42   19.12
  552.82   18.52  482.08   17.29  462.23   16.93  451.68   16.74  448.58   16.68
  406.39   15.88  375.37   15.26  387.16   15.50  330.70   14.32  371.03   15.17
  346.83   14.67  339.38   14.51  343.73   14.60  345.59   14.64  357.38   14.89
  326.97   14.24  353.03   14.80  352.41   14.79  364.82   15.04  354.89   14.84
  344.35   14.62  331.32   14.34  387.78   15.51  354.27   14.83  344.35   14.62
  368.54   15.12  352.41   14.79  370.40   15.16  393.98   15.63  394.60   15.65
  405.77   15.87  420.04   16.14  469.06   17.06  479.60   17.25  523.65   18.02
  570.96   15.30  600.88   15.69  614.00   15.86  655.40   16.39  758.68   17.63
  784.51   17.93  845.69   22.58  858.95   22.75  895.12   23.23  867.99   22.87
  893.31   23.20  825.20   22.30  763.11   21.45  702.83   20.58  649.79   19.79
  594.33   18.93  547.92   18.17  535.26   17.96  502.11   17.40  505.73   17.46
  520.19   17.71  521.40   17.73  537.67   18.00  614.83   19.25  648.58   19.77
  722.12   20.86  766.73   21.50  799.28   21.95  807.11   22.06  858.95   22.75
  846.90   22.59  810.13   22.10  734.78   21.05  685.96   20.33  647.98   19.76
  619.65   19.33  525.02   17.79  507.53   17.49  472.57   16.88  456.90   16.60
  426.16   16.03  417.12   15.86  422.54   15.96  423.15   15.97  424.95   16.00
  436.41   16.22  443.64   16.35  446.65   16.41  456.30   16.58  456.90   16.60
  423.15   15.97  440.02   16.29  460.52   16.66  497.92   14.04  524.46   14.41
  550.60   14.77  620.72   15.68  678.55   16.39  782.33   17.60  924.12   23.36
 1067.02   25.10 1212.28   26.76 1423.09   28.99 1594.33   30.68 1715.97   31.83
 1794.51   32.55 1874.22   33.27 1829.94   32.87 1821.08   32.79 1664.01   31.35
 1463.83   29.40 1289.05   27.59 1155.59   26.12 1003.25   24.34  823.74   22.05
  709.77   20.47  649.54   19.58  549.75   18.02  479.48   16.83  466.49   16.60
  399.76   15.36  380.87   15.00  371.42   14.81  364.92   14.68  343.67   14.25
  381.46   15.01  330.09   13.96  328.31   13.92  328.31   13.92  332.45   14.01
  362.56   14.63  334.22   14.05  344.26   14.26  370.24   14.79  342.49   14.22
  333.63   14.04  351.34   14.40  345.44   14.28  352.52   14.43  344.26   14.26
  323.59   13.82  361.97   14.62  328.31   13.92  344.85   14.27  326.54   13.89
  330.68   13.97  334.22   14.05  350.75   14.39  344.47   11.65  343.68   11.64
  329.88   11.40  340.13   11.58  357.08   11.86  334.65   13.99  334.06   13.98
  349.86   14.31  340.50   14.11  307.74   13.42  318.85   13.66  355.13   14.41
  342.26   14.15  318.27   13.65  335.23   14.00  332.89   13.96  357.47   14.46
  360.98   14.53  362.15   14.56  368.58   14.68  318.27   13.65  361.56   14.54
  352.79   14.37  360.39   14.52  355.13   14.41  392.57   15.15  359.22   14.50
  401.93   15.33  401.93   15.33  437.03   15.99  444.64   16.13  466.87   16.53
  483.84   16.82  563.41   18.16  630.10   19.20  621.91   19.07  749.45   20.94
  903.32   22.99 1034.37   24.60 1191.75   26.41 1350.88   28.11 1446.25   29.09
 1577.30   30.38 1714.79   31.67 1748.14   31.98 1683.19   31.38 1701.92   31.55
 1632.88   30.91 1514.70   29.77 1353.81   28.14 1219.83   26.71 1079.42   25.13
  986.40   24.02  869.13   18.59  768.50   17.48  698.89   16.67  626.49   15.79
  593.08   15.36  545.34   18.19  540.49   18.11  546.56   18.21  555.05   18.35
  565.97   18.53  637.55   19.67  666.06   20.10  669.09   20.15  677.59   20.27
  695.18   20.54  676.98   20.26  641.80   19.73  614.50   19.31  591.45   18.94
  518.65   17.74  507.13   17.54  473.16   16.94  468.30   16.85  431.30   16.18
  410.68   15.78  376.10   15.10  387.02   15.32  345.77   14.48  356.08   14.70
  357.29   14.72  347.59   14.52  358.51   14.75  354.87   14.67  326.96   14.08
  340.31   14.37  341.52   14.39  340.31   14.37  345.77   14.48  365.79   14.90
  352.44   14.62  351.23   14.60  339.70   14.36  383.99   15.26  362.15   14.82
  391.26   15.41  350.02   14.57  372.46   15.03  378.53   15.15  394.90   15.48
  436.76   16.28  451.93   16.56  490.14   17.24  525.33   17.85  587.81   18.88
  647.86   19.82  684.57   16.59  815.28   18.11  907.79   19.11 1007.14   20.13
 1170.44   21.70 1216.44   27.21 1328.46   28.44 1397.26   29.17 1432.57   29.53
 1414.92   29.35 1394.82   29.14 1318.11   28.33 1240.79   27.49 1103.81   25.92
  963.77   24.22  896.80   23.37  769.56   21.65  666.06   20.14  627.09   19.54
  550.99   18.32  525.42   17.89  482.19   17.13  450.53   16.56  412.18   15.84
  397.56   15.56  383.56   15.28  364.69   14.90  344.60   14.48  324.51   14.06
  366.51   14.94  339.12   14.37  378.08   15.17  370.78   15.02  361.04   14.83
  376.26   15.14  400.61   15.62  411.57   15.83  414.61   15.89  462.71   16.78
  477.93   17.06  495.59   17.37  536.99   18.08  593.00   19.00  636.23   19.68
  647.18   19.85  658.14   20.02  678.84   20.33  667.88   20.16  664.84   20.12
  695.28   20.57  723.90   20.99  661.80   20.07  636.83   19.69  652.66   19.93
  655.57   16.12  670.23   16.30  701.55   16.68  712.64   16.81  779.86   21.30
  840.39   22.12  915.47   23.08 1013.24   24.28 1098.79   25.29 1134.88   25.70
 1211.70   26.56 1208.79   26.52 1278.63   27.28 1307.73   27.59 1258.84   27.07
 1204.13   26.47 1193.66   26.36 1080.75   25.08 1077.84   25.05  941.07   23.40
  864.25   22.43  832.24   22.01  735.63   20.69  668.12   19.72  632.62   19.19
  582.57   18.41  517.39   17.35  516.80   17.34  445.22   16.10  445.80   16.11
  384.11   14.95  423.69   15.70  362.58   14.53  359.09   14.46  345.12   14.17
  375.96   14.79  350.94   14.29  352.10   14.31  359.09   14.46  350.94   14.29
  370.73   14.69  329.99   13.86  341.63   14.10  350.94   14.29  359.67   14.47
  371.31   14.70  396.33   15.19  396.92   15.20  368.98   14.65  412.63   15.50
  419.03   15.62  423.69   15.70  447.55   16.14  478.39   16.69  517.15   14.36
  523.92   14.45  556.22   14.89  572.57   15.11  564.59   15.00  556.20   18.25
  579.55   18.63  556.20   18.25  547.82   18.11  564.59   18.39  546.03   18.08
  532.26   17.85  555.01   18.23  507.11   17.42  514.89   17.56  520.88   17.66
  551.41   18.17  562.79   18.36  593.92   18.86  614.88   19.19  668.76   20.01
  766.35   21.42  839.99   22.43  870.53   22.83 1004.04   24.52 1074.69   25.37
 1283.04   27.72 1450.68   29.47 1707.53   31.97 1941.03   34.09 2164.35   36.00
 2396.65   37.88 2593.02   39.40 2769.65   40.72 2961.23   42.11 2875.02   41.49
 2803.17   40.97 2879.21   41.52 2757.07   40.63 2666.67   39.96 2355.34   37.55
 2115.85   35.59 1884.75   33.59 1640.47   31.34 1491.39   29.88 1240.53   27.25
 1117.80   25.87  973.51   24.14  859.75   22.69  778.33   21.59  653.20   19.78
  574.17   18.54  547.22   18.10  500.52   17.31  446.09   13.54  421.03   13.15
  401.73   12.85  412.41   13.02  388.99   12.64  380.95   15.66  388.67   15.81
  423.42   16.51  386.74   15.78  456.89   17.15  428.57   16.61  463.32   17.27
  489.70   17.75  489.06   17.74  532.82   18.52  544.40   18.72  551.48   18.84
  572.07   19.19  545.05   18.73  579.79   19.32  574.00   19.22  556.63   18.93
  518.66   18.27  525.74   18.39  480.69   17.59  529.60   18.46  489.70   17.75
  462.68   17.25  474.90   17.48  428.57   16.61  426.00   16.56  404.12   16.13
  393.82   15.92  388.03   15.80  386.74   15.78  335.91   14.70  362.29   15.27
  357.79   15.17  362.29   15.27  354.57   15.11  359.72   15.21  355.86   15.13
  353.93   15.09  384.81   15.74  353.28   15.08  391.89   15.88  357.14   15.16
  364.22   15.31  407.34   16.19  388.67   15.81  396.40   15.97  427.28   16.58
  411.84   16.28  451.49   13.68  455.64   13.74  495.44   14.33  537.73   14.93
  553.48   15.15  571.31   15.39  570.81   18.76  572.66   18.79  651.56   20.04
  646.63   19.97  639.85   19.86  644.78   19.94  692.25   20.66  669.44   20.31
  617.04   19.50  643.55   19.92  598.55   19.21  602.25   19.27  603.48   19.29
  580.67   18.92  578.21   18.88  551.09   18.43  544.31   18.32  588.07   19.04
  550.47   18.42  604.10   19.30  615.81   19.48  648.48   19.99  689.17   20.61
  747.11   21.46  779.16   21.92  885.19   23.36  965.33   24.39 1107.10   26.12
 1203.27   27.23 1264.91   27.92 1441.82   29.81 1532.44   30.73 1561.41   31.02
 1623.67   31.64 1644.01   31.83 1686.55   32.24 1695.18   32.33 1699.49   32.37
 1655.11   31.94 1547.85   30.89 1496.07   30.37 1396.83   29.34 1274.16   28.03
 1215.60   27.37 1082.45   25.83 1008.48   24.93  875.33   23.23  860.53   23.03
  790.88   22.08  719.16   17.01  680.54   16.54  627.45   15.89  591.25   15.42
  581.60   15.29  555.17   17.96  515.10   17.30  524.97   17.46  452.96   16.22
  505.23   17.13  505.81   17.14  486.06   16.80  510.45   17.22  526.13   17.48
  549.36   17.86  583.62   18.41  620.21   18.98  674.80   19.80  695.70   20.10
  752.61   20.91  799.07   21.54  854.82   22.28  869.34   22.47  922.18   23.14
  955.87   23.56  985.48   23.92  991.29   23.99  997.10   24.06  985.48   23.92
 1006.97   24.18  957.03   23.57  921.02   23.13  885.02   22.67  805.46   21.63
  775.84   21.23  743.90   20.78  707.32   20.27  630.66   19.14  588.27   18.48
  566.78   18.14  505.23   17.13  498.84   17.02  446.57   16.10  458.19   16.31
  407.67   15.39  379.21   14.84  388.50   15.02  394.89   15.14  377.47   14.81
  380.95   14.87  336.24   13.97  336.24   13.97  337.40   14.00  320.56   13.64
  353.09   11.67  353.47   11.67  361.95   11.81  353.47   11.67  381.28   14.82
  355.36   14.31  345.00   14.10  367.46   14.55  359.97   14.40  373.79   14.67
  385.89   14.91  398.56   15.15  402.59   15.23  433.12   15.79  433.12   15.79
  429.09   15.72  468.83   16.43  485.53   16.72  514.33   17.21  548.88   17.78
  575.38   18.20  637.01   19.15  639.88   19.20  707.85   20.19  776.39   21.15
  853.56   22.17  915.77   22.97 1015.98   24.19  996.98   23.96 1054.57   24.65
 1112.17   25.31 1098.34   25.15 1121.96   25.42 1146.15   25.69 1109.86   25.28
 1102.95   25.20 1089.70   25.05 1062.63   24.74 1052.27   24.62  973.94   23.68
  942.26   23.30  844.92   22.06  779.27   21.19  740.10   20.65  706.12   20.17
  620.88   18.91  597.26   18.55  603.02   18.64  552.92   17.85  539.67   17.63
  520.09   17.31  493.59   16.86  546.58   17.74  481.79   13.98  472.86   13.85
  478.94   13.94  505.33   14.32  516.69   14.48  549.97   14.94  561.34   18.73
  599.47   19.36  618.85   19.67  646.35   20.10  686.98   20.72  753.87   21.71
  820.13   22.64  878.26   23.43  925.77   24.06  897.64   23.69  970.15   24.63
  998.28   24.98 1081.42   26.00 1047.04   25.58 1112.67   26.37 1107.05   26.31
 1087.67   26.07 1103.30   26.26 1087.67   26.07 1027.04   25.34 1036.41   25.45
 1043.29   25.54  987.03   24.84  946.40   24.32  885.76   23.53  870.14   23.32
  846.38   23.00  858.88   23.17  834.51   22.84  858.26   23.16  827.00   22.74
  842.63   22.95  865.14   23.25  897.02   23.68  968.28   24.60  910.14   23.85
 1067.67   25.83 1107.05   26.31 1160.18   26.93 1171.43   27.06 1214.56   27.55
 1240.19   27.84 1277.70   28.26 1252.07   27.98 1257.70   28.04 1257.07   28.03
 1285.83   28.35 1235.19   27.79 1145.80   26.76 1123.93   26.51 1115.17   26.40
 1086.42   26.06 1026.41   25.33  942.02   24.27  831.62   33.81  761.51   32.35
  732.65   31.73  668.04   30.30  635.05   29.55  608.93   28.93  542.96   27.32
  545.70   27.39  487.97   25.90  507.22   26.40  443.99   24.70  460.48   25.16
  476.98   25.61  395.88   23.33  384.88   23.00  371.13   22.59  369.76   22.54
  378.01   22.79  371.13   22.59  384.88   23.00  390.38   23.16  358.76   22.21
  364.26   22.38  371.13   22.59  430.24   24.32  412.37   23.81  416.49   23.93
  446.74   24.78  468.73   25.38  472.85   25.49  474.23   25.53  481.10   25.72
  497.59   26.15  493.47   26.04  486.60   25.86  529.21   26.97  574.57   28.10
  525.09   26.87  505.84   26.37  549.83   27.49  530.58   27.01  475.60   25.57
  541.58   27.28  555.33   27.63  529.21   26.97  493.47   26.04  482.47   25.75
  508.59   26.44  509.97   26.48  534.71   27.11  472.85   25.49  465.98   25.31
  441.24   24.63                                                                