                                                                                
BANK 1 2431 487 CONST  602.500    5.000 0 0 ESD                                 
  539.01   24.73  524.26   24.39  553.76   25.07  560.57   25.22  544.68   24.86
  560.57   25.22  518.58   24.26  529.93   24.52  553.76   25.07  551.49   25.02
  526.52   24.44  523.12   24.36  477.73   23.28  524.26   24.39  523.12   24.36
  579.86   25.65  497.02   23.75  512.91   24.13  526.52   24.44  559.43   25.20
  524.26   24.39  558.30   25.17  537.87   24.71  535.60   24.65  544.68   24.86
  493.62   23.67  531.06   24.55  515.18   24.18  526.52   24.44  553.76   25.07
  557.16   25.14  518.58   24.26  482.27   23.39  480.00   23.34  542.41   24.81
  523.12   24.36  519.72   24.28  517.45   24.23  550.35   24.99  519.72   24.28
  531.06   24.55  524.26   24.39  535.60   24.65  487.94   23.53  503.83   23.91
  543.55   24.84  516.31   24.21  566.24   25.35  532.20   24.57  491.35   23.61
  519.72   24.28  503.83   23.91  504.73   16.89  501.91   16.84  525.08   17.23
  494.56   16.72  525.08   17.23  542.04   17.50  527.91   17.27  484.95   16.56
  546.56   17.58  534.12   17.38  506.99   16.93  508.69   16.96  514.91   17.06
  519.43   17.13  487.21   16.59  504.17   16.88  527.91   17.27  514.91   17.06
  504.73   16.89  545.99   17.57  529.04   17.29  518.30   17.12  510.95   16.99
  517.73   17.11  514.34   17.05  500.21   16.81  518.30   17.12  511.52   17.00
  522.26   17.18  491.17   16.66  500.78   16.82  508.12   16.95  501.34   16.83
  493.43   16.70  514.91   17.06  509.82   16.98  471.95   16.33  532.43   17.35
  498.52   16.79  494.56   16.72  477.04   16.42  543.17   17.52  513.21   17.03
  488.91   16.62  511.52   17.00  488.34   16.61  479.30   16.46  487.21   16.59
  503.60   16.87  485.52   16.57  490.60   16.65  500.21   16.81  461.78   16.16
  483.46   13.42  500.23   13.66  488.30   13.49  472.65   13.27  522.97   13.96
  481.60   13.40  502.10   13.68  461.84   13.12  496.81   16.61  520.12   16.99
  511.80   16.86  513.46   16.88  467.94   16.12  479.60   16.32  440.19   15.63
  478.49   16.30  455.18   15.90  483.49   16.38  501.80   16.69  470.16   16.16
  476.27   16.26  486.26   16.43  472.38   16.19  467.94   16.12  491.26   16.51
  481.82   16.35  494.03   16.56  509.58   16.82  482.38   16.36  492.92   16.54
  452.40   15.85  466.83   16.10  457.40   15.93  482.93   16.37  483.49   16.38
  451.85   15.84  460.73   15.99  482.38   16.36  472.94   16.20  490.15   16.49
  452.96   15.86  472.38   16.19  460.17   15.98  469.61   16.15  464.06   16.05
  472.94   16.20  469.05   16.14  481.82   16.35  439.63   15.62  463.50   16.04
  461.84   16.01  469.61   16.15  489.04   16.48  446.85   15.75  440.19   15.63
  465.74   13.15  464.62   13.14  467.60   13.18  463.14   13.12  450.88   12.94
  466.06   16.07  497.09   16.60  479.91   16.31  481.02   16.33  479.36   16.30
  452.20   15.83  451.65   15.82  454.42   15.87  435.58   15.54  464.95   16.05
  481.02   16.33  455.53   15.89  466.61   16.08  479.36   16.30  468.27   16.11
  436.69   15.56  467.72   16.10  453.87   15.86  469.94   16.14  422.28   15.30
  449.99   15.79  472.15   16.18  460.52   15.98  429.48   15.43  453.31   15.85
  478.25   16.28  453.87   15.86  478.25   16.28  466.61   16.08  433.92   15.51
  453.31   15.85  446.11   15.72  474.37   16.21  426.16   15.37  461.07   15.98
  437.24   15.57  433.92   15.51  446.11   15.72  437.24   15.57  448.88   15.77
  437.79   15.58  445.55   15.71  443.89   15.68  428.37   15.41  447.77   15.75
  437.79   15.58  458.30   15.94  445.55   15.71  466.06   16.07  434.47   15.52
  420.29   12.46  442.47   12.79  461.33   13.06  454.86   15.93  423.61   15.38
  419.70   15.30  426.40   15.43  435.33   15.59  453.19   15.90  471.05   16.21
  446.49   15.79  430.31   15.50  413.56   15.19  450.96   15.86  440.91   15.69
  445.37   15.77  459.33   16.01  446.49   15.79  470.49   16.20  490.58   16.55
  483.33   16.42  505.65   16.80  501.19   16.72  493.37   16.59  522.39   17.07
  534.67   17.27  568.72   17.82  559.23   17.67  632.34   18.79  708.25   19.88
  790.29   21.00  833.82   21.57  982.84   23.42 1115.11   24.95 1419.84   28.15
 1629.69   30.16 2014.23   33.53 2159.90   34.72 2228.55   35.27 2182.78   34.90
 1968.47   33.15 1605.69   29.94 1258.55   26.50  861.73   21.93  670.29   19.34
  548.63   17.50  481.09   16.39  465.47   16.12  459.89   16.02  428.07   15.46
  462.68   16.07  464.35   16.10  448.17   15.82  430.86   15.51  450.10   13.18
  442.00   13.06  439.69   13.02  449.33   13.16  445.42   16.18  468.93   16.60
  462.47   16.49  480.68   16.81  456.59   16.38  445.42   16.18  493.02   17.02
  494.20   17.04  470.69   16.63  498.31   17.11  534.16   17.72  568.83   18.28
  599.97   18.78  677.54   19.95  737.48   20.82  810.93   21.83 1020.13   24.48
 1191.13   26.46 1437.34   29.06 1760.54   32.16 2083.15   34.99 2171.88   35.72
 2250.62   36.37 2074.34   34.91 1814.01   32.65 1440.87   29.10 1045.39   24.79
  773.91   21.33  601.15   18.79  510.65   17.32  459.53   16.43  443.66   16.15
  431.91   15.93  431.91   15.93  431.32   15.92  426.62   15.83  406.64   15.46
  429.56   15.89  435.43   16.00  451.30   16.28  444.25   16.16  469.52   16.61
  445.42   16.18  434.85   15.99  416.04   15.64  423.09   15.77  456.00   16.37
  424.86   15.80  418.98   15.69  437.96   13.18  459.39   13.50  455.02   13.44
  420.51   12.92  396.31   12.54  458.59   13.49  458.64   16.83  447.53   16.62
  427.78   16.25  425.31   16.20  468.52   17.01  424.07   16.18  456.79   16.79
  435.80   16.40  441.98   16.52  437.04   16.42  466.05   16.96  454.32   16.75
  472.84   17.08  481.48   17.24  528.40   18.06  508.64   17.72  530.86   18.10
  579.63   18.92  719.75   21.08  743.21   21.42  890.74   23.45  901.85   23.59
  959.88   24.34  861.11   23.06  801.85   22.25  713.58   20.99  599.38   19.24
  525.31   18.01  460.49   16.86  442.59   16.53  428.40   16.26  420.37   16.11
  433.33   16.36  442.59   16.53  451.85   16.70  451.85   16.70  433.95   16.37
  467.90   16.99  420.99   16.12  438.89   16.46  424.07   16.18  405.56   15.82
  424.07   16.18  435.19   16.39  473.46   17.10  443.83   16.55  448.15   16.63
  430.25   16.30  439.64   13.65  454.47   13.87  411.69   13.20  450.66   13.82
  434.14   13.56  425.67   13.43  458.97   17.15  411.54   16.24  451.28   17.01
  447.44   16.94  401.92   16.05  448.08   16.95  423.08   16.47  426.28   16.53
  435.26   16.70  443.59   16.86  433.33   16.67  442.31   16.84  412.82   16.27
  427.56   16.56  437.82   16.75  451.92   17.02  428.21   16.57  421.79   16.44
  461.54   17.20  432.69   16.65  417.95   16.37  441.03   16.81  425.00   16.51
  407.69   16.17  442.95   16.85  440.38   16.80  429.49   16.59  437.82   16.75
  428.21   16.57  433.97   16.68  447.44   16.94  467.95   17.32  402.56   16.06
  430.77   16.62  435.26   16.70  430.77   16.62  450.00   16.98  412.18   16.25
  426.28   16.53  377.56   15.56  408.97   16.19  421.15   16.43  411.54   16.24
  430.77   16.62  410.26   16.22  434.62   16.69  447.44   16.94  448.72   16.96
  434.62   16.69  407.30   12.96  428.35   13.30  414.32   13.08  419.27   13.15
  408.29   15.95  427.61   16.33  417.64   16.13  402.06   15.83  416.39   16.11
  415.15   16.09  425.74   16.29  440.70   16.57  426.37   16.30  442.57   16.61
  433.85   16.44  412.03   16.03  433.85   16.44  431.35   16.40  428.24   16.34
  405.80   15.90  426.99   16.31  395.82   15.71  435.72   16.48  393.95   15.67
  408.29   15.95  428.86   16.35  428.24   16.34  433.22   16.43  402.68   15.84
  394.58   15.68  433.22   16.43  413.28   16.05  435.09   16.47  417.02   16.12
  425.12   16.28  430.73   16.39  427.61   16.33  414.52   16.07  437.59   16.52
  424.50   16.27  421.38   16.21  407.67   15.94  436.96   16.50  427.61   16.33
  393.33   15.66  403.93   15.87  390.21   15.60  415.15   16.09  435.09   16.47
  412.03   16.03  402.68   15.84  421.38   16.21  426.37   16.30  432.29   13.23
  401.50   12.75  406.36   12.83  412.84   12.93  411.63   12.91  402.37   15.26
  380.37   14.84  415.11   15.50  429.58   15.77  414.53   15.49  405.27   15.32
  440.58   15.97  387.32   14.97  431.90   15.81  416.85   15.53  396.58   15.15
  411.64   15.44  429.58   15.77  396.01   15.14  412.79   15.46  422.06   15.63
  407.01   15.35  427.85   15.74  425.53   15.70  416.85   15.53  404.69   15.31
  391.95   15.06  400.64   15.23  448.11   16.11  397.16   15.16  420.32   15.60
  409.32   15.39  401.79   15.25  413.37   15.47  418.01   15.56  422.64   15.64
  386.74   14.96  405.85   15.33  445.80   16.07  437.11   15.91  432.48   15.82
  418.01   15.56  429.01   15.76  457.37   16.27  427.27   15.73  397.16   15.16
  427.85   15.74  412.79   15.46  460.27   16.32  420.32   15.60  420.90   15.61
  416.85   15.53  408.16   15.37  421.48   15.62  432.48   15.82  399.57   12.49
  389.04   12.32  397.23   12.45  424.93   12.88  405.81   12.58  388.94   15.13
  426.60   15.84  429.54   15.90  409.53   15.52  426.01   15.83  400.12   15.34
  412.47   15.58  413.06   15.59  414.24   15.61  423.65   15.79  404.82   15.43
  434.25   15.98  401.88   15.38  403.06   15.40  448.96   16.25  393.06   15.21
  411.30   15.56  401.88   15.38  433.66   15.97  424.83   15.81  398.35   15.31
  431.89   15.94  389.53   15.14  417.18   15.67  414.83   15.62  416.59   15.66
  432.48   15.95  468.96   16.61  484.85   16.89  556.63   18.10  694.91   20.22
  850.84   22.37  952.04   23.67 1172.70   26.27 1269.20   27.33 1364.52   28.34
 1338.63   28.07 1163.87   26.17  989.11   24.12  743.75   20.92  602.53   18.83
  496.62   17.09  439.54   16.08  411.30   15.56  400.12   15.34  404.82   15.43
  401.29   15.37  431.30   15.93  415.31   12.70  410.64   12.63  416.86   12.73
  407.15   12.58  392.00   12.34  410.53   15.49  399.42   15.28  387.13   15.05
  398.25   15.26  384.80   15.00  420.47   15.68  412.28   15.53  408.19   15.45
  390.64   15.11  384.21   14.99  423.98   15.75  395.32   15.20  427.49   15.81
  432.75   15.91  393.57   15.17  412.28   15.53  416.96   15.62  415.79   15.59
  402.34   15.34  391.23   15.13  397.66   15.25  410.53   15.49  428.65   15.83
  405.85   15.41  428.65   15.83  416.96   15.62  432.16   15.90  380.12   14.91
  374.85   14.81  407.02   15.43  414.04   15.56  408.19   15.45  435.67   15.96
  412.28   15.53  415.79   15.59  423.98   15.75  427.49   15.81  467.25   16.53
  488.89   16.91  504.09   17.17  577.78   18.38  587.13   18.53  709.36   20.37
  760.23   21.09  785.96   21.44  893.57   22.86 1055.56   24.85 1204.09   26.54
 1526.90   29.88 1844.62   26.85 2210.10   29.39 2344.18   30.27 2309.39   30.05
 2055.31   28.34 1669.50   25.55 1300.83   27.48  938.62   23.34  684.37   19.93
  525.32   17.46  469.60   16.51  441.16   16.00  410.97   15.45  398.78   15.21
  433.61   15.86  437.67   15.94  436.51   15.92  421.42   15.64  423.16   15.67
  427.22   15.75  451.60   16.19  418.52   15.59  459.15   16.33  441.74   16.01
  488.75   16.84  461.47   16.37  570.60   18.20  670.44   19.73  902.05   22.88
 1248.59   26.92 1935.28   33.52 2995.21   41.70 4799.30   52.78 7319.11   65.18
10277.17   77.2413053.55   87.0515326.66   94.3215756.20   95.6314288.20   91.07
11454.36   81.54 8357.57   69.65 5287.48   55.40 2926.14   41.21 1545.20   29.95
  935.71   23.31  619.94   18.97  508.49   17.18  439.99   15.98  501.52   17.06
  485.27   16.78  511.39   17.23  538.09   17.67  578.15   18.32  708.17   17.10
  911.74   19.40 1175.18   22.03 1550.53   25.30 1813.56   27.37 2044.39   29.05
 2119.89   37.01 1931.17   35.33 1596.38   32.12 1253.19   28.46  875.75   23.79
  686.38   21.06  524.16   18.41  482.15   17.65  446.60   16.99  436.26   16.79
  427.86   16.63  456.29   17.17  454.35   17.14  402.00   16.12  411.05   16.30
  396.83   16.01  441.43   16.89  407.17   16.22  382.61   15.73  431.73   16.70
  423.98   16.55  449.18   17.04  511.88   18.19  463.40   17.31  473.74   17.50
  519.63   18.33  535.14   18.60  588.14   19.50  553.89   18.92  553.24   18.91
  535.79   18.61  527.39   18.46  517.69   18.29  485.38   17.71  471.16   17.45
  462.76   17.29  440.78   16.88  418.16   16.44  378.09   15.63  398.77   16.05
  398.77   16.05  380.68   15.69  391.02   15.90  423.33   16.54  418.16   16.44
  411.70   16.31  381.97   15.71  424.62   16.57  418.81   16.45  397.65   12.91
  416.93   13.22  405.20   13.03  400.17   12.95  387.60   12.74  386.15   15.84
  397.85   16.08  401.11   16.15  393.95   16.00  406.31   16.25  367.30   15.45
  409.56   16.32  401.11   16.15  376.40   15.64  372.50   15.56  421.91   16.56
  384.85   15.82  367.95   15.47  370.55   15.52  403.71   16.20  402.41   16.17
  384.85   15.82  402.41   16.17  390.05   15.92  388.75   15.90  404.36   16.21
  384.85   15.82  384.85   15.82  421.91   16.56  375.75   15.63  409.56   16.32
  414.11   16.41  392.65   15.98  398.50   16.10  396.55   16.06  377.70   15.67
  393.30   15.99  379.00   15.70  382.25   15.76  388.75   15.90  368.60   15.48
  386.80   15.86  396.55   16.06  369.25   15.49  381.60   15.75  416.06   16.45
  408.91   16.30  375.10   15.62  384.85   15.82  388.75   15.90  379.00   15.70
  431.66   16.75  380.30   15.72  410.86   16.34  396.88   13.02  400.30   13.08
  369.54   12.56  387.48   12.87  402.01   15.65  378.25   15.18  391.05   15.43
  377.65   15.17  408.71   15.78  373.99   15.09  392.87   15.47  360.59   14.82
  369.73   15.01  377.04   15.15  392.26   15.46  383.74   15.29  389.83   15.41
  405.66   15.72  397.14   15.55  405.06   15.71  366.07   14.93  398.96   15.59
  384.96   15.31  397.14   15.55  371.55   15.04  378.25   15.18  392.26   15.46
  380.69   15.23  394.09   15.49  397.75   15.57  412.97   15.86  389.22   15.40
  389.22   15.40  404.45   15.70  403.84   15.68  391.05   15.43  384.35   15.30
  410.54   15.81  409.32   15.79  436.73   16.31  516.52   17.74  615.20   19.36
  670.63   20.21  769.30   21.65  811.33   22.23  799.15   22.06  805.24   22.15
  746.76   21.33  679.76   20.35  587.79   18.92  482.41   17.14  426.98   16.13
  376.43   15.14  395.31   15.52  379.24   12.32  393.24   12.54  374.04   12.23
  373.64   12.23  380.04   12.33  411.32   15.74  398.07   15.48  402.29   15.57
  416.74   15.84  425.17   16.00  433.60   16.16  536.59   17.98  661.85   19.96
  797.35   21.91 1036.43   24.98 1417.65   29.22 1767.54   32.63 2141.52   35.91
 2393.86   37.97 2288.47   37.12 2005.42   34.75 1587.47   30.92 1201.45   26.90
  885.28   23.09  676.90   20.19  514.30   17.60  451.67   16.49  401.69   15.55
  378.80   15.10  390.85   15.34  376.99   15.07  380.61   15.14  376.39   15.06
  372.18   14.97  376.99   15.07  370.37   14.93  357.72   14.68  389.04   15.31
  377.60   15.08  384.82   15.22  373.38   15.00  395.06   15.42  371.57   14.96
  387.23   15.27  349.89   14.52  380.61   15.14  384.22   15.21  380.01   15.13
  376.39   15.06  396.27   15.45  354.11   14.60  375.79   15.04  393.26   15.39
  369.17   14.91  388.68   12.62  371.46   12.34  365.31   12.24  374.74   12.40
  366.95   12.27  377.02   15.18  385.58   15.35  378.25   15.20  412.47   15.88
  388.02   15.40  380.08   15.24  344.64   14.51  374.58   15.13  403.91   15.71
  458.30   16.73  437.52   16.35  479.07   17.11  548.73   18.31  589.06   18.97
  640.39   19.78  780.93   21.84  969.75   24.34 1256.95   27.71 1788.57   33.06
 2367.86   38.04 3147.57   43.86 3696.30   47.53 4025.05   49.59 3860.07   48.57
 3340.05   45.18 2692.94   40.57 1979.22   34.78 1367.55   28.91  912.92   23.62
  635.50   19.71  516.96   17.77  424.08   16.10  391.08   15.46  399.02   15.61
  416.13   15.95  372.14   15.08  364.80   14.93  388.63   15.41  384.36   15.33
  373.36   15.10  356.25   14.75  361.14   14.86  357.47   14.78  367.86   14.99
  379.47   15.23  377.64   15.19  373.97   15.12  373.36   15.10  367.25   14.98
  384.53   12.56  370.99   12.34  377.96   12.45  364.01   12.22  352.93   12.03
  376.88   15.45  376.88   15.45  383.21   15.58  426.92   16.44  430.09   16.51
  494.06   17.69  595.41   19.42  651.78   20.32  876.64   23.56 1129.37   26.75
 1440.38   30.21 1659.54   32.42 1875.53   34.47 1854.63   34.27 1554.39   31.38
 1322.57   28.94  984.96   24.98  810.77   22.66  585.27   19.25  488.99   17.60
  412.98   16.17  414.25   16.20  392.08   15.76  369.28   15.29  353.44   14.96
  392.72   15.77  385.11   15.62  378.78   15.49  378.78   15.49  405.38   16.02
  364.85   15.20  420.59   16.32  416.79   16.25  490.89   17.63  470.63   17.27
  528.90   18.30  560.57   18.84  549.80   18.66  541.57   18.52  509.90   17.97
  478.23   17.40  441.49   16.72  437.05   16.64  419.95   16.31  345.21   14.79
  382.58   15.57  395.25   15.82  374.98   15.41  378.15   15.48  396.76   13.09
  369.10   12.63  383.79   12.88  389.41   12.97  374.72   12.73  377.79   15.69
  389.51   15.93  399.93   16.14  388.21   15.90  356.29   15.23  371.93   15.56
  370.62   15.54  381.05   15.75  368.02   15.48  352.39   15.15  366.06   15.44
  381.70   15.77  379.09   15.71  379.09   15.71  407.10   16.28  370.62   15.54
  408.40   16.31  384.30   15.82  372.58   15.58  377.14   15.67  379.74   15.73
  369.32   15.51  375.83   15.65  363.46   15.39  399.28   16.13  365.41   15.43
  371.93   15.56  392.12   15.98  402.54   16.19  398.63   16.11  369.32   15.51
  374.53   15.62  395.38   16.05  383.00   15.79  392.12   15.98  456.60   17.25
  502.20   18.09  536.07   18.69  562.77   19.15  636.38   20.36  610.98   19.95
  584.27   19.51  541.28   18.78  553.66   18.99  499.59   18.04  437.71   16.89
  413.61   16.41  354.34   15.19  393.42   16.01  392.11   12.93  356.27   12.33
  372.48   12.61  396.80   13.01  362.67   12.44  393.26   15.96  375.12   15.59
  358.92   15.25  378.36   15.66  384.19   15.78  403.63   16.17  406.87   16.24
  392.61   15.95  391.97   15.94  412.05   16.34  384.19   15.78  379.66   15.68
  407.52   16.25  408.16   16.26  372.53   15.54  398.45   16.07  395.85   16.01
  387.43   15.84  390.67   15.91  380.95   15.71  391.97   15.94  425.66   16.61
  432.78   16.74  471.01   17.47  515.06   18.27  610.95   19.90  701.65   21.32
  745.06   21.97  830.58   23.20  855.20   23.54  741.82   21.92  695.82   21.23
  611.60   19.91  553.29   18.93  527.37   18.48  514.42   18.26  485.26   17.73
  480.73   17.65  472.30   17.49  457.40   17.21  435.37   16.79  426.95   16.63
  428.90   16.67  424.36   16.58  429.54   16.68  472.95   17.50  546.16   18.81
  578.56   19.36  701.65   21.32  787.92   18.12  905.00   19.42  960.83   20.01
 1060.00   21.02 1065.42   21.07 1195.80   26.80 1422.22   29.23 1755.56   32.47
 2305.71   37.21 2905.11   41.77 3469.67   45.65 3824.62   47.93 3926.73   48.56
 3693.69   47.10 3054.05   42.83 2425.23   38.17 1809.01   32.96 1368.77   28.67
  972.97   24.17  691.89   20.39  517.12   17.62  448.05   16.40  409.61   15.68
  342.94   14.35  366.97   14.85  369.97   14.91  368.17   14.87  387.99   15.27
  366.37   14.83  374.77   15.00  356.16   14.63  375.38   15.02  351.95   14.54
  359.16   14.69  358.56   14.67  363.96   14.79  345.35   14.40  348.95   14.48
  367.57   14.86  360.96   14.72  390.39   15.31  392.79   15.36  397.60   15.45
  407.81   15.65  457.66   16.58  475.08   16.89  530.33   17.85  616.22   19.24
  658.26   19.88  808.41   22.03  756.76   21.32  786.79   21.74  750.75   21.23
  691.37   16.73  572.30   15.22  522.48   14.55  448.36   13.48  416.36   12.99
  390.85   12.58  403.49   15.59  382.41   15.18  364.95   14.83  364.95   14.83
  342.67   14.37  340.26   14.31  366.76   14.86  354.11   14.60  358.93   14.70
  384.82   15.22  350.50   14.53  377.60   15.08  401.08   15.54  393.26   15.39
  432.40   16.14  496.24   17.29  559.47   18.36  655.22   19.86  829.87   22.36
 1016.56   24.74 1278.53   27.75 1445.35   29.50 1628.43   31.32 1613.37   31.17
 1539.30   30.45 1277.33   27.74 1062.93   25.30  922.61   23.57  700.39   20.54
  585.37   18.78  476.96   16.95  430.59   16.10  398.68   15.49  416.74   15.84
  360.73   14.74  386.03   15.25  340.26   14.31  364.35   14.81  353.51   14.59
  339.66   14.30  342.67   14.37  372.18   14.97  327.01   14.03  386.63   15.26
  351.10   14.54  376.39   15.06  355.92   14.64  344.47   14.40  356.42   12.04
  361.71   12.13  357.24   12.06  358.46   12.08  376.77   12.38  368.63   12.25
  394.07   15.69  423.42   16.26  425.29   16.30  414.05   16.08  434.66   16.48
  425.92   16.31  420.30   16.20  417.17   16.14  402.19   15.85  413.43   16.07
  375.96   15.32  362.84   15.05  354.10   14.87  372.21   15.25  341.61   14.61
  366.59   15.13  357.85   14.95  354.72   14.88  357.85   14.95  377.21   15.35
  385.95   15.53  359.09   14.98  335.99   14.49  346.60   14.71  356.60   14.92
  331.62   14.39  377.21   15.35  349.10   14.77  350.35   14.79  374.71   15.30
  385.95   15.53  365.34   15.10  353.47   14.86  372.21   15.25  327.87   14.31
  381.58   15.44  354.10   14.87  360.97   15.01  357.22   14.94  395.94   15.72
  382.83   15.46  429.04   16.37  404.68   15.90  402.19   15.85  477.75   17.27
  523.97   18.09  573.30   18.92  619.52   19.67  733.23   17.66  846.36   18.97
  985.01   20.47 1206.17   22.65 1541.31   25.60 2020.36   36.14 2571.66   40.77
 3128.13   44.96 3522.38   47.71 3783.49   49.45 3724.03   49.06 3279.37   46.04
 2882.53   43.16 2317.01   38.70 1718.53   33.33 1296.49   28.95  979.16   25.16
  724.51   21.64  612.05   19.89  487.96   17.76  416.22   16.40  396.19   16.00
  393.60   15.95  361.93   15.29  356.76   15.18  363.23   15.32  367.10   15.40
  367.75   15.42  363.23   15.32  358.70   15.23  369.69   15.46  369.69   15.46
  365.16   15.36  339.96   14.82  352.88   15.10  378.74   15.65  369.04   15.44
  378.74   15.65  384.55   15.77  337.37   14.77  345.77   14.95  373.57   15.54
  367.10   15.40  365.81   15.38  385.20   15.78  369.69   15.46  352.24   15.09
  364.52   15.35  338.67   14.79  372.92   15.52  350.95   15.06  346.42   14.96
  328.97   14.58  372.27   15.51  372.81   12.93  373.26   12.94  368.78   12.86
  392.55   13.27  401.08   13.41  440.02   17.53  443.51   17.60  495.90   18.61
  560.85   19.79  663.52   21.53  771.78   23.22 1019.73   26.69 1308.89   30.24
 1588.96   33.31 1799.90   35.46 1998.25   37.36 2037.37   37.72 1966.13   37.06
 1745.42   34.92 1497.47   32.34 1248.82   29.53 1037.19   26.92  905.88   25.15
  771.08   23.21  683.08   21.84  639.08   21.13  540.60   19.43  509.87   18.87
  479.13   18.29  431.64   17.36  396.02   16.63  375.76   16.20  374.37   16.17
  401.61   16.75  315.70   14.85  389.03   16.48  384.15   16.38  361.10   15.88
  370.87   16.09  363.89   15.94  352.02   15.68  372.97   16.14  362.49   15.91
  349.22   15.62  368.08   16.03  379.95   16.29  372.27   16.12  363.89   15.94
  370.87   16.09  367.38   16.02  365.99   15.99  389.73   16.50  391.13   16.53
  444.21   17.61  397.42   16.66  430.08   13.75  485.49   14.61  506.16   14.92
  557.61   15.66  652.23   20.69  748.03   22.15  916.01   24.52 1146.33   27.43
 1545.93   31.85 1889.11   35.21 2218.50   38.15 2408.14   39.75 2614.17   41.42
 2549.21   40.90 2362.86   39.38 1998.69   36.21 1725.72   33.65 1347.77   29.74
 1146.98   27.43  808.40   23.03  772.31   22.51  593.18   19.73  546.59   18.94
  572.83   19.39  573.49   19.40  601.71   19.87  731.63   21.91  899.61   24.30
 1112.20   27.01 1465.88   31.01 1874.02   35.07 2359.58   39.35 3049.87   44.74
 3496.72   47.90 3760.50   49.67 3875.33   50.43 3663.39   49.03 3262.47   46.27
 2753.28   42.50 2286.75   38.74 1778.22   34.16 1537.40   31.76 1278.22   28.96
 1169.95   27.71 1087.93   26.72 1080.71   26.63 1019.03   25.86 1082.68   26.65
 1089.24   26.73 1034.12   26.05  921.26   24.59  807.74   23.02  781.50   22.64
  660.65   16.85  572.10   15.68  526.11   15.04  460.78   14.07  422.52   13.48
  393.98   15.48  390.94   15.42  398.84   15.57  426.20   16.10  426.81   16.11
  393.98   15.48  449.92   16.54  498.56   17.41  562.40   18.49  640.83   19.74
  722.91   20.96  804.99   22.12  858.49   22.85  857.27   22.83  794.65   21.98
  759.39   21.49  666.97   20.14  609.21   19.25  563.00   18.50  506.46   17.55
  439.58   16.35  406.75   15.73  404.32   15.68  371.49   15.03  404.92   15.69
  370.27   15.00  372.70   15.05  363.58   14.87  358.72   14.77  348.38   14.55
  348.99   14.57  350.21   14.59  355.68   14.71  360.54   14.81  353.25   14.66
  350.81   14.60  347.77   14.54  350.21   14.59  361.15   14.82  350.21   14.59
  358.11   14.76  344.13   14.46  353.85   14.67  347.17   14.53  337.44   14.32
  348.38   14.55  371.49   15.03  346.56   14.52  362.37   14.84  366.21   12.17
  336.27   11.66  376.33   12.34  383.21   12.45  360.14   12.07  361.76   12.10
  369.55   15.06  354.82   14.76  362.80   14.92  368.32   15.04  336.40   14.37
  359.12   14.85  366.48   15.00  362.80   14.92  367.10   15.01  378.76   15.25
  367.10   15.01  343.16   14.51  361.57   14.90  382.44   15.32  384.28   15.36
  383.06   15.33  418.05   16.02  424.80   16.15  462.86   16.86  531.00   18.05
  595.46   19.12  673.42   20.33  770.41   21.75  834.87   22.64  922.65   23.80
  933.70   23.94  950.89   24.16  941.07   24.04  863.72   23.03  789.44   22.01
  702.89   20.77  621.85   19.54  550.64   18.39  505.22   17.61  436.46   16.37
  449.36   16.61  446.29   16.55  410.68   15.88  470.23   16.99  440.76   16.45
  457.95   16.77  531.00   18.05  538.37   18.18  502.76   17.57  534.07   18.11
  508.29   17.66  472.07   17.02  465.93   16.91  435.24   16.35  423.51   13.06
  382.05   12.40  380.84   12.38  375.60   12.30  363.37   14.70  349.69   14.42
  338.39   14.19  340.77   14.24  346.71   14.36  367.53   14.78  349.69   14.42
  325.30   13.91  328.87   13.99  328.87   13.99  334.23   14.10  383.59   15.10
  355.04   14.53  334.82   14.11  341.36   14.25  335.41   14.12  336.01   14.14
  341.96   14.26  337.20   14.16  329.47   14.00  314.60   13.68  350.88   14.45
  343.15   14.29  359.20   14.62  339.58   14.21  325.30   13.91  341.96   14.26
  355.63   14.54  324.12   13.88  352.07   14.47  349.09   14.41  336.60   14.15
  331.85   14.05  344.34   14.31  321.74   13.83  349.09   14.41  358.61   14.60
  340.77   14.24  355.63   14.54  338.39   14.19  358.01   14.59  351.47   14.46
  350.28   14.43  379.42   15.02  387.15   15.17  394.89   15.32  411.54   15.64
  428.19   15.96  463.87   16.61  483.50   16.96  521.88   14.56  604.33   15.67
  644.13   16.17  726.17   17.17  772.73   21.73  892.56   23.36  992.21   24.63
 1130.98   26.29 1277.70   27.95 1342.50   28.65 1428.70   29.55 1396.91   29.22
 1396.30   29.22 1333.94   28.56 1132.20   26.31 1009.32   24.84  838.76   22.64
  724.44   21.04  659.02   20.07  544.09   18.24  489.68   17.30  451.17   16.61
  404.10   15.72  362.52   14.89  352.74   14.68  363.75   14.91  369.25   15.02
  361.30   14.86  358.86   14.81  354.58   14.72  350.30   14.63  361.91   14.87
  352.13   14.67  349.08   14.61  379.64   15.23  377.81   15.20  360.08   14.84
  388.81   15.42  403.48   15.71  432.83   16.27  426.10   16.14  478.68   17.11
  521.47   17.85  547.76   18.30  536.15   18.10  587.50   18.95  581.38   18.85
  551.43   18.36  520.25   17.83  488.46   17.28  444.44   16.48  421.82   16.06
  407.76   15.79  400.93   12.75  387.55   12.53  367.28   12.20  370.53   12.26
  388.77   12.55  368.10   12.22  408.87   15.93  377.23   15.30  429.97   16.33
  460.37   16.90  482.71   17.31  514.35   17.86  589.42   19.12  596.87   19.24
  671.32   20.41  596.87   19.24  635.33   19.85  648.98   20.07  590.04   19.13
  559.02   18.62  544.13   18.37  486.43   17.37  429.35   16.32  434.93   16.43
  385.30   15.46  347.45   14.68  380.95   15.37  371.03   15.17  322.01   14.13
  343.11   14.59  352.41   14.79  361.72   14.98  348.69   14.71  328.21   14.27
  347.45   14.68  358.62   14.92  341.86   14.56  329.46   14.30  358.62   14.92
  348.69   14.71  338.14   14.48  357.38   14.89  349.31   14.72  335.66   14.43
  366.06   15.07  362.34   14.99  385.92   15.47  373.51   15.22  385.30   15.46
  418.18   16.11  434.93   16.43  439.89   16.52  514.97   17.87  540.41   18.31
  563.58   15.20  586.95   15.51  612.36   15.84  687.78   16.79  718.93   17.17
  811.15   18.23  849.91   22.63  880.05   23.03  888.49   23.14  924.65   23.61
  875.83   22.98  839.06   22.49  783.00   21.72  737.19   21.08  679.93   20.24
  579.26   18.69  550.93   18.22  531.04   17.89  490.05   17.19  494.88   17.27
  499.70   17.36  527.43   17.83  555.76   18.30  566.00   18.47  652.20   19.83
  742.01   21.15  776.37   21.63  787.22   21.78  863.17   22.81  841.47   22.52
  813.74   22.15  766.73   21.50  713.68   20.74  674.50   20.16  602.77   19.06
  610.61   19.18  530.44   17.88  492.47   17.23  473.78   16.90  434.00   16.17
  434.00   16.17  435.20   16.20  396.02   15.45  415.91   15.83  437.01   16.23
  440.02   16.29  432.79   16.15  440.63   16.30  425.56   16.02  436.41   16.22
  425.56   16.02  412.30   15.76  472.57   16.88  491.58   13.95  510.60   14.22
  554.57   14.82  595.37   15.36  701.13   16.67  813.23   17.95  908.18   23.16
 1054.03   24.95 1229.41   26.94 1438.44   29.14 1591.38   30.65 1688.81   31.58
 1834.07   32.91 1874.22   33.27 1834.66   32.91 1814.59   32.73 1670.50   31.41
 1485.09   29.61 1322.11   27.94 1143.79   25.99  932.98   23.47  832.00   22.17
  743.43   20.95  601.12   18.84  546.21   17.96  519.63   17.52  429.88   15.93
  412.16   15.60  378.51   14.95  359.61   14.57  328.31   13.92  346.03   14.29
  343.08   14.23  360.79   14.60  324.18   13.84  333.04   14.02  350.16   14.38
  347.80   14.33  348.98   14.36  317.09   13.68  340.71   14.18  370.83   14.80
  335.99   14.09  350.16   14.38  324.77   13.85  323.59   13.82  350.16   14.38
  336.58   14.10  363.15   14.64  323.59   13.82  359.02   14.56  339.53   14.16
  337.76   14.12  336.58   14.10  330.09   13.96  340.53   11.58  333.43   11.46
  335.80   11.50  347.62   11.70  348.80   11.72  344.01   14.19  335.23   14.00
  327.63   13.84  355.71   14.43  324.12   13.77  327.04   13.83  352.79   14.37
  336.40   14.03  353.96   14.39  335.82   14.02  364.49   14.60  362.15   14.56
  320.02   13.68  344.60   14.20  350.45   14.32  373.85   14.79  359.22   14.50
  355.13   14.41  372.09   14.75  348.69   14.28  340.50   14.11  382.04   14.95
  377.94   14.87  389.64   15.10  451.08   16.25  448.73   16.20  470.97   16.60
  520.70   17.45  545.27   17.86  578.62   18.40  708.50   20.36  750.04   20.95
  857.10   22.39  954.22   23.63 1122.71   25.63 1302.33   27.60 1478.43   29.41
 1583.15   30.43 1670.32   31.26 1763.35   32.12 1734.09   31.85 1686.70   31.41
 1662.72   31.19 1483.69   29.46 1394.18   28.56 1223.34   26.75 1160.16   26.05
  985.23   24.01  874.70   18.65  743.04   17.19  697.30   16.65  649.96   16.08
  592.28   15.35  583.56   18.81  536.85   18.05  541.10   18.12  603.58   19.13
  604.79   19.15  598.73   19.06  653.93   19.92  663.03   20.05  666.67   20.11
  685.47   20.39  648.47   19.83  645.44   19.79  644.22   19.77  587.20   18.87
  549.59   18.26  475.58   16.99  524.11   17.83  456.17   16.63  431.30   16.18
  397.33   15.53  377.92   15.14  361.54   14.81  380.35   15.19  357.90   14.73
  372.46   15.03  350.02   14.57  325.14   14.04  334.85   14.25  352.44   14.62
  360.33   14.78  342.13   14.41  343.95   14.44  357.29   14.72  366.39   14.91
  348.20   14.53  343.34   14.43  335.46   14.27  339.70   14.36  373.67   15.06
  368.82   14.96  371.85   15.02  386.41   15.31  390.66   15.39  438.58   16.31
  411.28   15.80  449.50   16.51  470.12   16.89  515.01   17.68  595.69   19.01
  609.04   19.22  706.69   16.86  781.10   17.72  935.55   19.40 1033.69   20.39
 1149.52   21.50 1290.11   28.03 1330.29   28.46 1350.38   28.67 1450.23   29.71
 1396.04   29.15 1405.18   29.25 1325.42   28.41 1213.39   27.18 1092.85   25.79
 1008.83   24.78  900.46   23.41  809.13   22.20  718.42   20.91  629.53   19.58
  557.08   18.42  519.94   17.79  470.02   16.92  445.05   16.46  411.57   15.83
  391.48   15.44  389.65   15.40  384.78   15.31  373.21   15.07  362.86   14.86
  347.03   14.54  348.86   14.57  329.38   14.16  378.69   15.18  387.82   15.37
  432.88   16.23  389.04   15.39  434.09   16.26  420.09   15.99  477.93   17.06
  486.45   17.21  494.98   17.36  550.38   18.31  561.34   18.49  594.82   19.03
  669.71   20.19  669.10   20.18  687.98   20.47  697.11   20.60  681.28   20.37
  700.15   20.65  664.84   20.12  681.28   20.37  645.97   19.83  670.93   20.21
  650.02   16.05  655.57   16.12  701.94   16.68  722.55   16.92  821.77   21.87
  815.36   21.78  914.88   23.07  994.62   24.06 1094.72   25.24 1158.74   25.97
 1268.15   27.17 1290.27   27.40 1264.66   27.13 1277.46   27.27 1279.21   27.29
 1241.96   26.89 1232.65   26.78 1092.39   25.21 1050.49   24.73  951.55   23.53
  849.70   22.24  775.21   21.24  704.20   20.24  680.93   19.91  589.55   18.52
  557.54   18.01  502.26   17.10  513.89   17.29  479.56   16.71  412.05   15.49
  426.60   15.76  391.10   15.09  400.99   15.28  360.25   14.48  339.30   14.05
  353.27   14.34  356.76   14.41  361.41   14.50  335.81   13.98  358.50   14.44
  372.47   14.72  341.63   14.10  334.06   13.94  360.25   14.48  369.56   14.67
  393.42   15.13  366.65   14.61  388.77   15.04  404.48   15.34  403.90   15.33
  434.74   15.91  434.74   15.91  484.21   16.79  486.54   16.83  513.56   14.31
  527.51   14.50  550.24   14.81  557.42   14.91  584.13   15.26  589.13   18.78
  592.13   18.83  571.77   18.50  556.20   18.25  596.92   18.90  546.62   18.09
  528.66   17.79  511.90   17.51  525.07   17.73  514.29   17.55  548.42   18.12
  538.24   17.95  556.20   18.25  608.29   19.08  617.27   19.22  687.92   20.29
  760.96   21.34  823.23   22.20  919.02   23.46  996.86   24.43 1177.07   26.55
 1293.22   27.83 1512.35   30.09 1736.27   32.24 1961.38   34.27 2210.45   36.38
 2429.58   38.14 2607.39   39.51 2810.96   41.02 2771.44   40.73 2918.72   41.80
 2975.60   42.21 2901.96   41.68 2704.39   40.24 2591.23   39.39 2397.25   37.88
 2187.70   36.19 1943.42   34.11 1649.45   31.43 1433.32   29.29 1267.47   27.55
 1099.24   25.65  951.95   23.87  818.44   22.14  744.20   21.11  635.23   19.50
  600.51   18.96  526.27   17.75  490.35   17.13  456.77   13.70  457.18   13.70
  392.28   12.69  400.90   12.83  391.46   12.68  371.30   15.46  392.54   15.89
  415.70   16.36  431.15   16.66  439.51   16.82  428.57   16.61  425.35   16.54
  480.05   17.58  514.16   18.19  475.55   17.49  536.68   18.58  566.28   19.09
  537.32   18.59  548.26   18.78  549.55   18.81  568.85   19.13  579.79   19.32
  559.20   18.97  529.60   18.46  535.39   18.56  481.34   17.60  487.77   17.72
  463.32   17.27  438.87   16.81  453.02   17.07  396.40   15.97  388.67   15.81
  380.95   15.66  385.46   15.75  370.66   15.44  382.24   15.68  384.17   15.72
  375.80   15.55  329.47   14.56  351.99   15.05  365.51   15.34  339.77   14.79
  342.34   14.84  360.36   15.23  348.13   14.97  371.94   15.47  358.43   15.19
  377.09   15.58  402.83   16.10  410.55   16.25  397.68   16.00  408.62   16.22
  443.37   16.89  451.08   13.68  473.88   14.02  480.10   14.11  512.02   14.57
  545.19   15.03  567.99   15.35  568.35   18.72  629.99   19.71  644.17   19.93
  662.66   20.21  689.17   20.61  680.54   20.48  688.55   20.60  668.82   20.30
  652.80   20.06  618.89   19.53  580.06   18.91  597.32   19.19  595.47   19.16
  576.36   18.85  575.74   18.84  568.35   18.72  552.94   18.46  563.42   18.64
  531.98   18.11  621.98   19.58  604.10   19.30  685.47   20.56  711.36   20.94
  728.00   21.18  791.49   22.09  860.53   23.03  993.68   24.75 1049.16   25.43
 1171.83   26.88 1308.68   28.40 1446.76   29.86 1539.22   30.80 1561.41   31.02
 1637.23   31.77 1643.40   31.83 1740.79   32.76 1682.23   32.20 1702.57   32.40
 1592.85   31.33 1560.80   31.02 1513.95   30.55 1401.76   29.40 1319.77   28.52
 1193.40   27.12 1135.46   26.46  991.83   24.73  906.15   23.63  853.14   22.93
  759.44   21.64  729.21   17.13  679.74   16.53  646.76   16.13  622.22   15.82
  563.50   15.05  552.26   17.91  544.13   17.78  501.74   17.07  498.26   17.01
  511.03   17.23  497.10   16.99  531.36   17.57  477.93   16.66  540.07   17.71
  554.01   17.94  579.56   18.35  623.69   19.03  688.15   19.99  736.35   20.68
  744.48   20.79  786.88   21.38  852.50   22.25  885.02   22.67  937.86   23.34
  911.15   23.00  946.57   23.45  982.00   23.88  961.09   23.62 1040.07   24.58
  930.31   23.24  926.25   23.19  929.73   23.24  866.43   22.43  851.34   22.23
  817.07   21.78  772.94   21.19  673.64   19.78  642.86   19.32  619.63   18.97
  542.97   17.76  506.39   17.15  492.45   16.91  479.09   16.68  426.83   15.74
  419.86   15.61  414.05   15.51  376.31   14.78  369.34   14.65  358.89   14.44
  373.40   14.73  355.98   14.38  349.01   14.24  329.27   13.83  355.98   14.38
  338.06   11.42  336.13   11.38  367.74   11.91  351.93   11.65  373.79   14.67
  380.13   14.80  369.76   14.59  385.31   14.90  378.98   14.77  380.71   14.81
  413.53   15.43  421.02   15.57  373.79   14.67  416.41   15.49  435.42   15.84
  429.66   15.73  476.89   16.57  475.74   16.55  522.39   17.35  557.52   17.92
  547.73   17.76  581.14   18.30  635.28   19.13  723.97   20.42  786.75   21.29
  846.65   22.08  911.16   22.91  946.87   23.35  995.82   23.95 1005.62   24.07
 1064.36   24.76 1083.95   24.99 1080.49   24.95 1111.59   25.30 1088.55   25.04
 1118.50   25.38 1093.74   25.10 1092.01   25.08 1037.29   24.44  914.04   22.94
  946.29   23.35  864.51   22.31  782.15   21.22  763.71   20.97  677.90   19.76
  660.62   19.51  598.42   18.57  584.02   18.34  568.47   18.09  526.42   17.41
  504.54   17.05  484.95   16.71  496.47   16.91  472.45   13.85  482.19   13.99
  497.21   14.21  499.24   14.23  517.50   14.49  549.57   14.94  539.46   18.36
  550.09   18.54  616.97   19.64  636.35   19.94  707.61   21.03  735.11   21.44
  797.62   22.33  854.51   23.11  892.01   23.61  926.39   24.06  999.53   25.00
 1047.66   25.59 1067.04   25.83 1052.04   25.64 1058.29   25.72 1107.05   26.31
 1130.80   26.59 1050.16   25.62 1125.18   26.52 1070.79   25.87 1046.41   25.58
 1024.54   25.31 1003.28   25.04  918.89   23.97  912.02   23.88  885.14   23.52
  824.50   22.70  821.38   22.66  819.50   22.63  871.39   23.34  834.51   22.84
  867.01   23.28  880.76   23.46  903.89   23.77  977.65   24.72 1011.41   25.14
 1032.04   25.40 1097.67   26.19 1141.43   26.71 1218.94   27.60 1217.69   27.59
 1245.82   27.91 1302.70   28.54 1291.45   28.41 1280.20   28.29 1245.19   27.90
 1257.70   28.04 1192.69   27.30 1242.69   27.87 1145.80   26.76 1150.80   26.82
 1148.30   26.79  947.02   24.33  940.77   24.25  861.86   34.42  768.38   32.50
  687.29   30.74  684.54   30.67  674.91   30.46  589.69   28.47  577.32   28.17
  548.45   27.46  538.83   27.22  464.60   25.27  427.49   24.24  437.11   24.51
  378.01   22.79  375.26   22.71  324.40   21.12  369.76   22.54  391.75   23.21
  426.12   24.20  397.25   23.37  373.88   22.67  357.39   22.16  391.75   23.21
  387.63   23.08  383.51   22.96  387.63   23.08  371.13   22.59  402.75   23.53
  496.22   26.12  463.23   25.23  490.72   25.97  483.85   25.79  474.23   25.53
  534.71   27.11  571.82   28.04  501.72   26.26  606.19   28.87  497.59   26.15
  540.21   27.25  536.08   27.15  520.96   26.76  496.22   26.12  476.98   25.61
  516.84   26.65  544.33   27.35  552.58   27.56  533.33   27.08  508.59   26.44
  490.72   25.97  486.60   25.86  500.34   26.23  534.71   27.11  511.34   26.51
  483.85   25.79                                                                