                                                                                
BANK 1 2431 487 CONST  602.500    5.000 0 0 ESD                                 
  486.81   23.50  484.54   23.45  492.48   23.64  470.92   23.12  516.31   24.21
  481.13   23.37  482.27   23.39  486.81   23.50  521.99   24.34  468.65   23.06
  485.67   23.48  498.16   23.78  484.54   23.45  520.85   24.31  495.89   23.72
  498.16   23.78  491.35   23.61  501.56   23.86  502.70   23.88  502.70   23.88
  491.35   23.61  464.11   22.95  494.75   23.69  498.16   23.78  490.21   23.59
  464.11   22.95  450.50   22.61  459.57   22.84  459.57   22.84  485.67   23.48
  508.37   24.02  509.50   24.04  475.46   23.23  501.56   23.86  507.23   23.99
  469.79   23.09  531.06   24.55  493.62   23.67  485.67   23.48  447.09   22.52
  452.77   22.67  504.96   23.94  468.65   23.06  442.55   22.41  491.35   23.61
  491.35   23.61  473.19   23.17  461.84   22.89  491.35   23.61  521.99   24.34
  470.92   23.12  478.87   23.31  469.13   16.28  500.21   16.81  472.52   16.34
  480.99   16.49  480.99   16.49  474.78   16.38  470.82   16.31  507.56   16.94
  485.52   16.57  479.86   16.47  496.82   16.76  500.21   16.81  476.47   16.41
  479.86   16.47  470.82   16.31  491.73   16.67  457.82   16.09  498.52   16.79
  458.95   16.11  491.73   16.67  495.13   16.73  483.82   16.54  478.73   16.45
  471.39   16.32  499.65   16.80  469.69   16.29  475.91   16.40  475.91   16.40
  481.56   16.50  495.13   16.73  477.04   16.42  439.17   15.76  508.12   16.95
  481.56   16.50  467.99   16.26  473.08   16.35  482.13   16.51  490.04   16.64
  490.60   16.65  460.65   16.14  488.34   16.61  470.26   16.30  472.52   16.34
  484.95   16.56  478.73   16.45  461.21   16.15  467.43   16.25  475.34   16.39
  458.95   16.11  445.95   15.88  466.30   16.23  492.86   16.69  464.04   16.20
  505.08   13.72  476.38   13.33  478.61   13.36  492.78   13.55  465.57   13.17
  490.91   13.53  496.13   13.60  456.62   13.05  493.48   16.55  437.41   15.58
  499.03   16.64  450.74   15.82  479.05   16.31  484.04   16.39  451.29   15.83
  478.49   16.30  515.13   16.91  485.71   16.42  471.27   16.17  487.37   16.45
  451.29   15.83  493.48   16.55  444.63   15.71  476.82   16.27  504.58   16.74
  504.02   16.73  471.27   16.17  485.15   16.41  486.26   16.43  448.52   15.78
  462.39   16.02  462.39   16.02  475.16   16.24  461.28   16.00  472.94   16.20
  487.37   16.45  492.37   16.53  480.16   16.33  491.26   16.51  456.84   15.92
  467.94   16.12  487.93   16.46  489.59   16.49  461.28   16.00  455.18   15.90
  444.63   15.71  454.62   15.89  487.93   16.46  497.36   16.62  451.85   15.84
  487.93   16.46  462.39   16.02  474.05   16.22  447.96   15.77  456.29   15.91
  449.77   12.92  440.85   12.80  475.77   13.29  463.14   13.12  466.85   13.17
  467.72   16.10  479.91   16.31  466.06   16.07  472.71   16.19  454.97   15.88
  474.37   16.21  487.67   16.44  467.72   16.10  453.87   15.86  462.73   16.01
  459.96   15.97  455.53   15.89  452.76   15.84  467.17   16.09  433.92   15.51
  477.69   16.27  463.29   16.02  478.80   16.29  486.01   16.41  448.32   15.76
  447.77   15.75  483.79   16.37  457.19   15.92  465.50   16.06  468.83   16.12
  471.04   16.16  460.52   15.98  469.38   16.13  494.87   16.56  451.09   15.81
  476.03   16.24  448.32   15.76  481.57   16.34  469.94   16.14  471.04   16.16
  447.77   15.75  447.22   15.74  435.02   15.53  438.35   15.59  469.38   16.13
  445.00   15.70  448.32   15.76  454.42   15.87  469.94   16.14  483.79   16.37
  487.67   16.44  473.26   16.19  437.79   15.58  432.81   15.49  445.00   15.70
  443.58   12.81  444.32   12.82  465.39   13.12  450.96   15.86  468.82   16.18
  453.75   15.91  438.68   15.65  438.68   15.65  475.51   16.29  459.33   16.01
  458.21   15.99  441.47   15.70  463.79   16.09  440.91   15.69  458.77   16.00
  455.42   15.94  476.63   16.31  486.12   16.47  479.42   16.36  463.79   16.09
  474.95   16.28  467.70   16.16  510.12   16.87  502.86   16.75  554.76   17.60
  572.07   17.87  615.04   18.53  666.39   19.29  730.01   20.18  794.20   21.05
  896.89   22.37 1063.21   24.36 1190.46   25.78 1462.82   28.57 1803.82   31.73
 1991.35   33.34 2142.04   34.58 2222.97   35.22 2066.14   33.96 1832.29   31.98
 1466.72   28.61 1062.65   24.35  796.43   21.08  573.74   17.89  509.56   16.86
  477.19   16.32  452.07   15.88  455.42   15.94  444.82   15.76  458.21   15.99
  459.33   16.01  465.47   16.12  449.28   15.84  457.65   15.98  463.21   13.37
  434.29   12.94  453.96   13.23  440.84   13.04  451.89   16.30  461.29   16.46
  456.00   16.37  496.55   17.08  475.98   16.72  461.29   16.46  484.21   16.87
  528.28   17.62  519.47   17.47  526.52   17.59  576.47   18.41  625.24   19.17
  691.05   20.15  729.84   20.71  853.83   22.40  990.74   24.13 1225.21   26.83
 1489.64   29.59 1755.84   32.12 2071.40   34.89 2203.03   35.98 2246.51   36.33
 2034.96   34.58 1738.80   31.97 1371.53   28.39  986.63   24.08  775.08   21.34
  586.46   18.56  470.69   16.63  478.92   16.78  446.60   16.20  454.83   16.35
  458.35   16.41  447.19   16.21  420.16   15.71  477.74   16.76  431.32   15.92
  446.01   16.19  418.39   15.68  456.59   16.38  460.11   16.44  454.24   16.34
  434.85   15.99  458.35   16.41  457.76   16.40  417.81   15.67  449.54   16.25
  440.14   16.08  422.51   15.76  445.90   13.30  456.61   13.46  465.73   13.59
  453.44   13.41  457.01   13.46  457.01   13.46  438.27   16.45  476.54   17.15
  446.30   16.60  456.79   16.79  478.40   17.18  494.44   17.47  481.48   17.24
  476.54   17.15  461.11   16.87  468.52   17.01  485.19   17.31  482.72   17.26
  526.54   18.03  527.78   18.05  521.60   17.94  566.67   18.70  633.95   19.78
  720.99   21.10  787.65   22.05  816.05   22.44  872.22   23.20  885.19   23.38
  850.62   22.91  742.59   21.41  656.17   20.13  550.00   18.43  500.00   17.57
  506.79   17.69  455.56   16.77  475.93   17.14  466.67   16.97  450.62   16.68
  440.12   16.48  450.62   16.68  434.57   16.38  456.17   16.78  445.06   16.57
  429.63   16.29  429.63   16.29  470.99   17.05  468.52   17.01  445.68   16.59
  423.46   16.17  446.91   16.61  445.68   16.59  411.11   15.93  466.67   16.97
  425.93   16.21  449.39   13.80  479.03   14.24  437.53   13.61  440.91   13.67
  431.60   13.52  441.76   13.68  435.26   16.70  433.33   16.67  408.97   16.19
  473.08   17.41  416.03   16.33  434.62   16.69  458.33   17.14  470.51   17.37
  469.87   17.36  457.05   17.12  419.23   16.39  451.92   17.02  458.97   17.15
  423.08   16.47  452.56   17.03  457.69   17.13  436.54   16.73  473.08   17.41
  440.38   16.80  430.77   16.62  450.64   17.00  473.08   17.41  442.31   16.84
  471.79   17.39  441.67   16.83  466.67   17.30  432.05   16.64  448.72   16.96
  424.36   16.49  420.51   16.42  427.56   16.56  429.49   16.59  459.62   17.16
  448.72   16.96  467.31   17.31  438.46   16.76  427.56   16.56  462.82   17.22
  417.95   16.37  430.77   16.62  432.69   16.65  430.13   16.60  425.64   16.52
  437.18   16.74  416.03   16.33  441.67   16.83  443.59   16.86  422.44   16.46
  423.72   16.48  426.29   13.26  408.54   12.98  421.75   13.19  430.00   13.32
  443.82   16.63  453.17   16.81  410.78   16.00  450.68   16.76  417.64   16.13
  431.98   16.41  437.59   16.52  452.55   16.80  442.57   16.61  390.84   15.61
  433.22   16.43  436.96   16.50  424.50   16.27  440.08   16.56  418.26   16.15
  453.79   16.82  427.61   16.33  415.15   16.09  400.81   15.81  410.78   16.00
  442.57   16.61  428.24   16.34  435.09   16.47  415.15   16.09  411.41   16.01
  403.30   15.86  422.63   16.23  447.56   16.70  421.38   16.21  406.42   15.92
  422.00   16.22  449.43   16.74  408.91   15.97  420.13   16.18  424.50   16.27
  422.00   16.22  401.43   15.82  434.47   16.46  415.15   16.09  436.96   16.50
  442.57   16.61  451.92   16.78  428.86   16.35  445.07   16.66  416.39   16.11
  428.24   16.34  419.51   16.17  451.30   16.77  432.60   16.42  427.02   13.15
  429.45   13.19  433.51   13.25  435.94   13.29  422.16   13.08  416.85   15.53
  407.01   15.35  445.80   16.07  421.48   15.62  431.32   15.80  452.16   16.18
  413.37   15.47  436.53   15.90  441.74   15.99  445.80   16.07  412.79   15.46
  449.85   16.14  419.74   15.59  419.74   15.59  412.22   15.45  420.90   15.61
  405.27   15.32  413.37   15.47  419.16   15.58  430.74   15.79  431.32   15.80
  426.11   15.71  426.69   15.72  420.90   15.61  449.27   16.13  409.32   15.39
  433.06   15.83  423.22   15.65  426.69   15.72  419.74   15.59  449.27   16.13
  445.80   16.07  416.27   15.52  424.95   15.69  431.90   15.81  443.48   16.02
  445.22   16.05  402.95   15.27  426.69   15.72  424.37   15.67  412.79   15.46
  424.37   15.67  431.90   15.81  423.22   15.65  413.95   15.48  434.80   15.87
  411.64   15.44  422.64   15.64  414.53   15.49  406.43   15.34  406.98   12.60
  426.10   12.89  424.15   12.86  445.62   13.19  424.93   12.88  417.77   15.68
  420.12   15.72  420.71   15.73  418.36   15.69  438.95   16.07  429.54   15.90
  437.78   16.05  433.07   15.96  410.12   15.53  414.24   15.61  421.30   15.74
  411.89   15.57  412.47   15.58  433.07   15.96  456.02   16.38  441.89   16.12
  436.60   16.03  410.71   15.55  424.24   15.80  405.41   15.45  420.12   15.72
  420.71   15.73  448.37   16.24  476.61   16.75  463.08   16.51  460.14   16.45
  484.26   16.88  565.46   18.24  691.97   20.18  817.30   21.93  992.06   24.16
 1105.62   25.51 1295.09   27.61 1369.81   28.39 1345.10   28.13 1198.00   26.55
  958.52   23.75  783.17   21.47  617.83   19.07  550.16   17.99  458.37   16.42
  422.48   15.77  412.47   15.58  474.26   16.70  450.72   16.29  444.25   16.17
  461.90   16.49  452.49   16.32  455.32   13.30  430.46   12.93  418.41   12.75
  423.08   12.82  427.74   12.89  433.33   15.92  410.53   15.49  416.37   15.60
  424.56   15.76  440.94   16.06  424.56   15.76  449.71   16.22  445.61   16.14
  457.89   16.36  455.56   16.32  414.62   15.57  436.84   15.98  432.16   15.90
  438.60   16.02  424.56   15.76  393.57   15.17  418.13   15.64  414.62   15.57
  408.77   15.46  413.45   15.55  434.50   15.94  445.61   16.14  422.81   15.72
  418.13   15.64  419.30   15.66  409.36   15.47  421.64   15.70  419.88   15.67
  445.03   16.13  448.54   16.20  459.65   16.40  445.61   16.14  447.95   16.19
  476.02   16.68  500.00   17.10  484.21   16.83  530.41   17.61  528.07   17.57
  603.51   18.79  616.37   18.99  728.07   20.63  781.87   21.38  883.04   22.72
 1036.26   24.62 1253.80   27.08 1538.60   30.00 1852.05   32.91 2183.63   35.73
 2298.25   36.66 2288.28   29.91 2063.13   28.40 1708.20   25.84 1273.14   22.31
  954.95   19.32  685.23   16.37  597.88   18.63  513.13   17.26  453.93   16.23
  446.96   16.11  428.97   15.78  438.83   15.96  454.51   16.24  409.81   15.42
  437.09   15.93  435.35   15.90  438.83   15.96  463.21   16.40  437.67   15.94
  459.15   16.33  448.12   16.13  474.24   16.59  473.08   16.57  532.29   17.58
  621.10   18.99  792.34   21.45 1055.29   24.75 1455.23   29.06 2238.28   36.05
 3546.07   45.37 5537.08   56.69 8083.59   68.5010862.28   79.4113509.80   88.56
15122.33   93.6915028.30   93.4013109.27   87.2310177.91   76.86 6967.93   63.60
 4141.63   49.03 2280.66   36.38 1261.94   27.06  730.23   20.59  561.89   18.06
  546.22   17.81  500.94   17.05  492.82   16.91  538.09   17.67  554.93   17.95
  575.24   18.27  657.67   19.54  780.15   21.28  987.37   23.94 1263.14   22.84
 1588.11   25.61 1865.59   27.76 2046.45   29.07 2103.85   29.47 1855.27   27.68
 1520.76   31.35 1189.85   27.73  942.96   24.69  645.66   20.43  536.44   18.62
  473.10   17.49  449.83   17.05  433.67   16.74  453.06   17.11  434.97   16.77
  433.67   16.74  423.98   16.55  449.83   17.05  429.79   16.67  413.64   16.35
  425.27   16.58  431.09   16.69  486.02   17.72  476.98   17.56  482.15   17.65
  513.17   18.21  498.30   17.95  551.30   18.88  547.42   18.81  559.06   19.01
  555.18   18.94  534.50   18.59  530.62   18.52  548.07   18.82  526.74   18.45
  540.96   18.70  467.93   17.39  489.90   17.79  418.16   16.44  427.86   16.63
  419.45   16.47  438.20   16.83  394.25   15.96  458.23   17.21  421.39   16.50
  401.36   16.11  420.10   16.48  402.65   16.13  431.73   16.70  437.55   16.82
  424.62   16.57  393.60   15.95  405.88   16.20  368.40   15.43  409.39   13.10
  410.64   13.12  421.54   13.29  411.06   13.12  411.90   13.14  405.66   16.24
  409.56   16.32  421.26   16.55  430.36   16.73  409.56   16.32  410.21   16.33
  400.46   16.13  418.66   16.50  406.31   16.25  415.41   16.43  406.31   16.25
  433.61   16.79  418.66   16.50  417.36   16.47  427.11   16.66  432.31   16.76
  413.46   16.39  405.01   16.23  409.56   16.32  372.50   15.56  376.40   15.64
  401.11   16.15  410.21   16.33  401.11   16.15  377.05   15.66  408.91   16.30
  434.26   16.80  395.25   16.03  398.50   16.10  410.86   16.34  411.51   16.36
  395.90   16.04  389.40   15.91  423.21   16.59  375.10   15.62  403.71   16.20
  405.01   16.23  384.20   15.80  410.86   16.34  403.06   16.19  412.16   16.37
  427.76   16.68  408.91   16.30  427.11   16.66  434.26   16.80  405.66   16.24
  397.85   16.08  380.30   15.72  442.71   16.96  410.12   13.24  423.37   13.45
  411.83   13.26  392.18   12.94  381.30   15.24  428.20   16.15  422.11   16.03
  399.57   15.60  379.47   15.20  405.66   15.72  414.80   15.90  411.15   15.83
  433.68   16.25  424.55   16.08  426.98   16.13  393.48   15.48  409.93   15.80
  403.23   15.67  390.44   15.42  402.01   15.65  397.14   15.55  404.45   15.70
  411.76   15.84  402.62   15.66  377.04   15.15  424.55   16.08  406.27   15.73
  405.66   15.72  425.16   16.09  409.93   15.80  378.86   15.19  399.57   15.60
  420.89   16.01  420.89   16.01  403.84   15.68  418.46   15.97  461.70   16.77
  511.65   17.65  581.70   18.82  671.23   20.22  785.75   21.88  866.15   22.97
  847.27   22.72  844.22   22.68  797.32   22.04  704.74   20.72  568.30   18.61
  500.08   17.45  487.89   17.24  440.99   16.39  418.46   15.97  431.86   16.22
  391.66   15.45  445.26   16.47  394.84   12.57  410.04   12.81  428.44   13.09
  437.24   13.23  454.45   13.48  422.76   15.96  461.31   16.67  478.77   16.98
  588.98   18.83  697.98   20.50  894.31   23.21 1242.40   27.35 1569.41   30.74
 1928.33   34.08 2225.84   36.61 2226.44   36.62 2037.34   35.03 1737.43   32.35
 1377.90   28.81 1062.93   25.30  732.31   21.00  548.63   18.18  479.37   16.99
  433.60   16.16  445.65   16.38  382.41   15.18  402.89   15.58  412.53   15.76
  390.24   15.33  401.69   15.55  404.10   15.60  428.18   16.06  383.62   15.20
  414.33   15.80  391.45   15.35  434.21   16.17  423.97   15.98  398.68   15.49
  416.74   15.84  411.92   15.75  411.92   15.75  363.75   14.80  376.99   15.07
  408.31   15.68  425.17   16.00  403.49   15.59  405.30   15.62  402.89   15.58
  426.38   16.02  428.79   16.07  392.05   15.37  413.73   15.78  397.47   15.47
  358.33   14.69  405.08   12.89  415.33   13.05  414.10   13.03  386.63   12.59
  404.67   12.88  406.97   15.77  419.80   16.02  404.52   15.72  422.85   16.07
  428.35   16.18  458.91   16.75  462.57   16.81  482.13   17.16  520.62   17.84
  589.06   18.97  601.89   19.18  720.44   20.98  831.65   22.54 1107.24   26.01
 1473.27   30.00 1960.89   34.62 2719.22   40.76 3214.79   44.32 3610.75   46.97
 3721.97   47.69 3407.88   45.63 2814.54   41.47 2111.21   35.92 1459.82   29.87
 1017.42   24.93  747.94   21.38  581.73   18.85  466.24   16.88  432.63   16.26
  430.80   16.22  409.41   15.82  403.30   15.70  424.08   16.10  411.85   15.86
  388.02   15.40  397.80   15.59  403.30   15.70  390.47   15.45  410.63   15.84
  415.52   15.93  403.91   15.71  393.52   15.51  416.74   15.96  378.25   15.20
  394.74   15.53  413.08   15.89  391.08   15.46  400.86   15.65  387.41   15.39
  381.66   12.51  409.56   12.96  397.25   12.77  398.48   12.79  418.18   13.10
  409.18   16.10  463.02   17.13  533.97   18.39  577.04   19.12  699.29   21.05
  865.87   23.42 1136.98   26.84 1373.87   29.50 1649.41   32.32 1749.49   33.29
 1714.01   32.95 1501.82   30.84 1337.13   29.10  998.89   25.15  797.47   22.47
  589.71   19.33  516.23   18.08  452.89   16.94  415.52   16.22  425.02   16.41
  412.98   16.17  391.45   15.75  438.95   16.67  402.22   15.96  392.72   15.77
  433.89   16.58  414.89   16.21  455.42   16.98  495.33   17.71  460.49   17.08
  517.50   18.10  525.73   18.25  542.20   18.53  545.37   18.59  533.33   18.38
  547.90   18.63  528.27   18.29  479.49   17.43  455.42   16.98  419.95   16.31
  412.35   16.16  418.69   16.28  415.52   16.22  426.29   16.43  377.51   15.46
  410.45   16.12  428.82   16.48  393.98   15.80  383.85   15.59  403.24   13.20
  382.93   12.86  400.65   13.16  417.50   13.43  376.45   12.76  397.98   16.10
  407.75   16.30  405.15   16.24  426.64   16.67  405.15   16.24  392.77   15.99
  437.06   16.87  424.69   16.63  389.51   15.93  409.71   16.34  411.66   16.37
  411.01   16.36  388.86   15.92  396.03   16.06  394.07   16.02  392.12   15.98
  395.38   16.05  420.13   16.54  414.92   16.44  411.66   16.37  415.57   16.45
  425.99   16.66  387.56   15.89  416.22   16.47  409.71   16.34  406.45   16.27
  397.33   16.09  410.36   16.35  401.89   16.18  409.71   16.34  474.19   17.57
  456.60   17.25  543.23   18.81  603.16   19.82  603.16   19.82  623.35   20.15
  636.38   20.36  604.46   19.84  527.60   18.54  513.27   18.28  439.67   16.92
  429.25   16.72  412.96   16.40  394.72   16.03  412.31   16.39  407.75   16.30
  435.11   16.83  386.91   15.88  412.96   16.40  387.84   12.86  380.59   12.74
  408.32   13.20  433.07   13.59  395.09   12.98  397.80   16.05  390.67   15.91
  421.12   16.52  395.85   16.01  422.42   16.54  413.99   16.38  402.33   16.15
  391.97   15.94  426.30   16.62  409.46   16.29  418.53   16.47  387.43   15.84
  379.01   15.67  424.36   16.58  399.74   16.09  415.29   16.40  421.77   16.53
  450.92   17.09  445.09   16.98  465.82   17.37  508.58   18.15  591.51   19.58
  643.99   20.43  763.85   22.25  811.79   22.93  805.96   22.85  780.69   22.49
  716.55   21.55  719.14   21.59  603.82   19.78  566.89   19.16  572.72   19.26
  494.33   17.90  496.27   17.93  485.91   17.74  462.59   17.31  447.68   17.03
  442.50   16.93  423.06   16.56  420.47   16.51  430.84   16.71  488.50   17.79
  570.13   19.22  596.70   19.66  741.82   21.92  794.95   22.69  884.35   23.94
  959.51   24.93  983.48   25.24  977.92   20.19 1053.75   20.95 1152.92   21.92
 1455.42   24.63 1846.67   27.74 2395.80   37.93 2899.10   41.73 3416.82   45.30
 3670.27   46.95 3538.74   46.10 3128.53   43.35 2607.81   39.58 2028.83   34.91
 1487.09   29.89 1033.03   24.91  784.98   21.71  608.41   19.12  526.73   17.79
  462.46   16.67  424.02   15.96  403.00   15.56  421.02   15.90  391.59   15.34
  394.59   15.39  402.40   15.55  391.59   15.34  389.19   15.29  407.21   15.64
  386.79   15.24  424.02   15.96  395.80   15.42  419.82   15.88  410.21   15.70
  381.98   15.15  392.19   15.35  404.20   15.58  411.41   15.72  430.63   16.08
  402.40   15.55  447.45   16.39  472.07   16.84  526.13   17.78  574.17   18.57
  631.23   19.47  666.07   20.00  742.34   21.12  746.55   21.17  716.52   20.74
  706.91   20.61  598.80   18.96  548.95   18.16  512.31   17.54  467.27   16.75
  420.82   13.06  412.72   12.93  398.95   12.71  425.27   13.12  387.20   12.52
  403.40   12.78  392.05   15.37  398.68   15.49  401.08   15.54  394.46   15.41
  391.45   15.35  411.92   15.75  409.52   15.70  409.52   15.70  398.68   15.49
  449.26   16.45  454.68   16.55  484.79   17.09  565.49   18.45  649.80   19.78
  797.95   21.92  949.11   23.91 1224.93   27.16 1400.78   29.04 1459.20   29.64
 1506.78   30.12 1427.28   29.32 1218.91   27.09 1039.45   25.02  857.57   22.73
  681.72   20.26  565.49   18.45  516.71   17.64  439.63   16.27  445.65   16.38
  427.58   16.05  423.97   15.98  397.47   15.47  388.44   15.29  397.47   15.47
  416.14   15.83  388.44   15.29  375.19   15.03  383.02   15.19  385.43   15.24
  418.55   15.88  405.30   15.62  395.06   15.42  392.05   15.37  393.26   15.39
  360.13   14.73  398.07   15.48  401.69   15.55  403.49   15.59  413.39   12.97
  389.38   12.59  413.39   12.97  432.51   13.27  450.01   13.53  445.12   13.46
  463.39   17.01  444.03   16.65  421.55   16.23  460.89   16.97  439.66   16.57
  408.43   15.97  424.67   16.29  416.55   16.13  380.95   15.42  382.20   15.45
  396.57   15.74  384.70   15.50  400.94   15.82  420.30   16.20  385.95   15.53
  389.70   15.60  405.93   15.92  388.45   15.58  424.04   16.27  401.56   15.84
  404.06   15.89  383.45   15.47  400.31   15.81  383.45   15.47  392.82   15.66
  386.57   15.54  385.32   15.51  377.21   15.35  412.80   16.06  399.06   15.79
  424.67   16.29  388.45   15.58  399.69   15.80  440.91   16.59  437.78   16.53
  451.52   16.79  418.42   16.17  461.51   16.98  447.15   16.71  537.08   18.31
  553.94   18.60  637.63   19.96  667.60   20.42  753.79   21.70  909.91   23.84
 1028.57   25.34 1262.76   28.08 1655.58   32.15 1884.53   28.31 2415.74   32.05
 2935.03   35.33 3244.66   37.15 3338.65   37.68 3305.22   46.22 3002.10   44.05
 2510.91   40.28 1962.19   35.61 1530.46   31.45 1147.20   27.23  866.05   23.66
  701.24   21.29  583.62   19.42  490.55   17.81  463.40   17.31  426.56   16.60
  397.48   16.03  394.89   15.98  449.18   17.04  394.25   15.96  425.27   16.58
  399.42   16.07  392.96   15.94  372.92   15.52  392.96   15.94  411.70   16.31
  380.68   15.69  398.13   16.04  384.55   15.77  422.04   16.52  404.59   16.17
  391.66   15.91  407.82   16.24  402.65   16.13  403.30   16.14  420.10   16.48
  407.17   16.22  387.78   15.83  397.48   16.03  408.47   16.25  403.30   16.14
  412.34   16.32  403.94   16.16  377.44   15.62  353.53   15.12  383.26   15.74
  416.87   16.41  416.22   16.40  431.09   16.69  399.42   16.07  426.56   16.60
  420.75   16.49  424.62   16.57  465.68   14.45  480.04   14.68  536.11   15.51
  588.60   16.25  741.59   18.24  778.07   23.31  998.08   26.40 1181.77   28.73
 1408.77   31.37 1714.68   34.61 1892.09   36.35 1915.84   36.58 1808.98   35.55
 1593.16   33.36 1472.32   32.07 1219.49   29.18  970.84   26.04  837.44   24.18
  765.50   23.12  684.48   21.86  613.93   20.71  576.22   20.06  551.07   19.62
  465.86   18.04  500.09   18.69  433.04   17.39  458.88   17.90  456.78   17.86
  403.70   16.79  414.88   17.02  390.43   16.51  450.50   17.74  419.07   17.11
  400.91   16.73  409.29   16.91  420.46   17.14  414.88   17.02  409.99   16.92
  397.42   16.66  393.23   16.57  403.70   16.79  396.72   16.65  423.96   17.21
  421.86   17.17  446.31   17.66  463.07   17.98  436.53   17.46  431.64   17.36
  426.05   17.25  484.72   18.40  447.01   17.67  516.85   19.00  543.39   19.48
  603.46   20.53  687.27   21.91  780.12   18.52  937.12   20.30 1127.53   22.27
 1430.08   25.08 1732.94   33.72 2069.55   36.85 2326.12   39.07 2406.17   39.73
 2319.55   39.01 2171.26   37.75 1872.05   35.05 1590.55   32.31 1308.40   29.30
 1072.18   26.52  819.55   23.19  730.97   21.90  622.70   20.21  509.19   18.28
  524.93   18.56  574.80   19.42  604.33   19.91  685.04   21.20  797.90   22.88
  991.47   25.51 1325.46   29.49 1695.54   33.36 2198.82   37.98 2712.60   42.19
 3158.14   45.52 3473.10   47.74 3561.68   48.34 3381.23   47.10 3058.40   44.80
 2676.51   41.91 2200.79   38.00 1881.23   35.13 1618.77   32.59 1343.18   29.69
 1129.27   27.22 1106.30   26.94 1043.96   26.17 1031.50   26.02  969.82   25.23
  923.88   24.62  862.86   23.79  831.36   23.36  772.97   22.52  702.76   21.47
  643.04   20.54  581.36   19.53  527.56   18.61  491.47   17.96  476.38   17.68
  426.39   13.54  429.40   13.59  430.26   13.60  450.03   13.91  467.66   14.18
  469.37   16.89  493.08   17.31  510.11   17.61  556.92   18.40  642.65   19.77
  716.83   20.88  800.12   22.06  831.13   22.48  861.53   22.89  763.03   21.54
  743.58   21.26  695.55   20.56  634.75   19.64  593.40   18.99  510.11   17.61
  536.25   18.06  493.08   17.31  438.36   16.33  440.80   16.37  412.22   15.83
  376.96   15.14  400.06   15.60  402.49   15.64  400.67   15.61  376.96   15.14
  358.72   14.77  405.53   15.70  377.56   15.15  400.06   15.60  401.88   15.63
  412.22   15.83  410.40   15.80  388.51   15.37  379.39   15.19  402.49   15.64
  399.45   15.58  380.60   15.21  407.36   15.74  402.49   15.64  393.37   15.47
  402.49   15.64  403.71   15.67  404.92   15.69  371.49   15.03  395.80   15.51
  402.49   15.64  427.42   16.12  423.16   16.04  404.92   15.69  419.63   13.03
  407.08   12.83  417.20   12.99  414.37   12.95  409.91   12.88  366.62   12.18
  417.43   16.01  421.73   16.09  403.31   15.73  401.47   15.70  424.19   16.14
  395.33   15.58  414.98   15.96  448.13   16.59  443.22   16.49  482.50   17.21
  457.34   16.76  489.26   17.33  529.77   18.03  590.55   19.04  678.94   20.42
  743.40   21.36  817.68   22.40  909.15   23.62  933.70   23.94  882.75   23.28
  922.65   23.80  758.13   21.57  713.93   20.93  691.84   20.61  605.89   19.29
  540.82   18.22  503.99   17.59  513.81   17.76  462.86   16.86  448.13   16.59
  437.08   16.38  448.74   16.60  464.70   16.89  489.87   17.34  499.08   17.50
  533.46   18.10  543.89   18.27  565.99   18.64  565.38   18.63  566.61   18.65
  540.82   18.22  492.94   17.40  486.80   17.29  453.04   16.68  440.76   16.45
  423.57   16.13  416.21   15.98  403.93   15.75  383.06   15.33  390.50   12.54
  425.52   13.09  383.25   12.42  372.38   12.24  372.29   14.88  399.05   15.41
  391.91   15.27  353.85   14.51  393.70   15.30  388.34   15.20  424.62   15.89
  408.56   15.59  369.31   14.82  384.78   15.13  396.67   15.36  399.64   15.42
  385.37   15.14  399.05   15.41  393.10   15.29  364.56   14.72  426.40   15.92
  377.64   14.99  391.32   15.26  400.24   15.43  373.48   14.90  375.85   14.95
  388.94   15.21  381.80   15.07  407.37   15.56  394.89   15.32  404.40   15.51
  377.04   14.97  374.07   14.92  410.35   15.62  407.37   15.56  400.24   15.43
  390.72   15.24  362.77   14.69  375.26   14.94  403.21   15.49  408.56   15.59
  407.97   15.58  424.62   15.89  399.05   15.41  403.81   15.50  472.20   16.76
  466.25   16.65  520.96   17.60  559.62   18.24  594.11   18.80  651.80   19.69
  671.42   19.98  755.87   21.20  877.79   22.85  922.73   19.36 1075.85   20.90
 1127.02   21.39 1230.99   22.36 1269.14   27.85 1297.88   28.17 1243.47   27.57
 1157.27   26.60 1036.22   25.17  883.39   23.24  825.31   22.46  715.88   20.92
  661.47   20.11  559.99   18.50  522.70   17.88  497.63   17.44  437.72   16.36
  412.65   15.88  426.10   16.14  399.82   15.63  424.88   16.12  377.81   15.20
  403.48   15.71  385.76   15.36  396.15   15.56  415.71   15.94  390.65   15.45
  399.82   15.63  403.48   15.71  426.10   16.14  460.34   16.78  434.05   16.29
  490.91   17.32  486.02   17.24  534.92   18.08  511.69   17.69  535.53   18.09
  553.87   18.40  547.76   18.30  572.21   18.70  558.77   18.48  521.47   17.85
  506.19   17.59  493.96   17.38  484.18   17.20  442.00   16.44  449.34   16.57
  457.28   16.72  394.93   15.54  430.38   16.22  426.10   16.14  446.28   16.52
  434.66   16.30  405.80   12.83  430.53   13.21  437.82   13.32  482.01   13.98
  509.98   14.38  528.23   14.63  575.77   18.90  614.86   19.53  656.43   20.18
  628.51   19.75  614.24   19.52  603.69   19.35  604.31   19.36  545.37   18.39
  520.55   17.97  513.11   17.84  549.71   18.47  425.00   16.24  423.14   16.20
  410.73   15.96  420.04   16.14  398.32   15.72  410.73   15.96  431.21   16.36
  403.91   15.83  418.80   16.12  417.56   16.10  398.32   15.72  377.23   15.30
  419.42   16.13  407.01   15.89  431.83   16.37  401.43   15.78  387.78   15.51
  405.15   15.85  395.84   15.67  426.24   16.26  420.66   16.16  420.66   16.16
  452.30   16.75  429.97   16.33  464.71   16.98  466.57   17.01  500.70   17.63
  531.10   18.15  537.30   18.26  560.26   18.64  586.94   19.08  614.86   19.53
  705.44   20.92  676.90   20.49  750.74   21.58  796.65   22.23  840.08   22.83
  846.40   18.63  880.01   18.99  874.68   18.93  852.14   18.69  814.02   18.27
  785.74   17.95  733.57   21.03  693.79   20.45  603.38   19.07  578.66   18.68
  557.56   18.33  564.80   18.45  556.96   18.32  584.09   18.76  582.88   18.74
  624.47   19.40  689.57   20.39  768.54   21.52  837.85   22.47  813.14   22.14
  822.18   22.26  830.62   22.38  800.48   21.97  773.36   21.59  752.26   21.29
  702.83   20.58  626.28   19.43  574.44   18.61  543.10   18.09  503.92   17.43
  487.04   17.13  494.27   17.26  455.70   16.57  455.70   16.57  436.41   16.22
  468.96   16.81  505.12   17.45  472.57   16.88  462.33   16.69  483.42   17.07
  510.55   17.54  473.78   16.90  489.45   17.18  508.74   17.51  526.22   17.81
  538.88   18.02  532.85   17.92  559.37   18.36  592.53   18.90  666.06   20.04
  741.41   21.14  778.78   21.67  884.27   23.09  999.41   19.90 1124.18   21.10
 1269.95   22.43 1472.37   24.15 1526.24   24.59 1618.93   25.32 1661.06   31.32
 1672.28   31.42 1577.21   30.52 1550.63   30.26 1329.20   28.02 1204.61   26.67
 1055.21   24.96  882.79   22.83  824.33   22.06  726.90   20.72  618.25   19.11
  581.64   18.53  509.60   17.35  448.18   16.27  465.31   16.58  414.53   15.65
  406.85   15.50  399.17   15.35  377.92   14.94  397.99   15.33  409.21   15.54
  410.39   15.57  399.17   15.35  392.09   15.22  433.42   16.00  400.35   15.38
  393.86   15.25  396.81   15.31  390.91   15.19  386.18   15.10  419.25   15.73
  412.75   15.61  389.13   15.16  386.18   15.10  400.94   15.39  437.56   16.07
  397.40   15.32  395.63   15.28  401.54   15.40  386.77   15.11  391.50   15.20
  403.31   15.43  413.35   15.62  399.17   15.35  367.88   14.74  415.71   15.67
  405.67   15.48  423.38   15.81  407.44   15.51  387.43   12.36  409.50   12.70
  408.71   12.69  397.67   12.52  400.83   12.57  397.25   15.25  400.76   15.31
  394.32   15.19  401.35   15.32  387.89   15.06  386.13   15.03  379.11   14.89
  403.10   15.36  442.88   16.10  410.12   15.49  412.46   15.53  391.40   15.13
  422.99   15.73  420.65   15.69  412.46   15.53  389.06   15.09  463.36   16.46
  486.18   16.87  482.67   16.80  555.21   18.02  563.99   18.16  627.18   19.16
  673.39   19.85  748.87   20.93  869.39   22.55  903.91   23.00 1020.33   24.43
 1134.42   25.76 1244.99   26.99 1343.86   28.04 1406.46   28.69 1440.98   29.04
 1486.03   29.49 1519.38   29.81 1419.34   28.82 1398.86   28.61 1280.09   27.37
 1216.91   26.68 1068.30   25.00  979.38   23.94  908.00   23.05  811.47   21.79
  742.43   20.84  624.25   19.11  662.86   19.69  588.56   18.56  599.68   18.73
  559.89   18.10  587.11   15.28  628.08   15.81  641.61   15.98  649.16   16.07
  669.45   16.32  650.89   19.87  678.80   20.29  680.62   20.32  645.44   19.79
  667.27   20.12  632.70   19.59  627.24   19.51  569.61   18.59  569.00   18.58
  496.82   17.36  490.14   17.24  458.60   16.68  469.52   16.88  448.89   16.50
  463.45   16.77  387.02   15.32  397.33   15.53  401.58   15.61  430.69   16.16
  440.40   16.34  434.94   16.24  405.22   15.68  403.40   15.64  422.81   16.02
  402.18   15.62  422.81   16.02  424.02   16.04  420.99   15.98  409.46   15.76
  433.12   16.21  451.32   16.55  414.92   15.86  444.04   16.41  443.43   16.40
  429.48   16.14  482.86   17.11  490.14   17.24  507.13   17.54  544.13   18.17
  536.25   18.04  602.37   19.12  673.34   20.21  763.12   21.52  850.47   22.71
  929.94   23.75 1043.98   25.17 1131.33   26.20 1206.55   27.05 1246.59   27.50
 1263.57   27.69 1212.27   22.08 1245.25   22.38 1247.66   22.40 1199.40   21.96
 1108.50   21.12 1019.79   24.92  914.46   23.60  835.31   22.55  731.81   21.11
  655.71   19.98  630.14   19.59  574.12   18.70  519.94   17.79  517.50   17.75
  485.84   17.20  457.84   16.70  412.18   15.84  438.96   16.35  426.18   16.11
  416.44   15.92  440.79   16.38  420.70   16.00  429.22   16.17  442.62   16.42
  437.14   16.31  438.96   16.35  474.28   16.99  445.05   16.46  444.44   16.45
  497.41   17.40  512.02   17.66  517.50   17.75  562.56   18.51  609.44   19.26
  588.13   18.92  622.22   19.46  628.92   19.57  648.40   19.87  681.28   20.37
  669.71   20.19  709.28   20.78  707.46   20.75  715.37   20.87  716.59   20.89
  715.37   20.87  706.24   20.74  727.55   21.05  677.63   20.31  747.64   21.34
  790.87   21.94  834.70   22.54  902.89   23.45  975.34   24.37  991.78   24.57
 1078.87   20.68 1070.55   20.60 1137.53   21.23 1117.32   21.04 1207.04   26.50
 1128.47   25.63 1115.67   25.48 1105.19   25.36  994.03   24.05  956.79   23.60
  879.97   22.63  857.85   22.34  775.79   21.25  707.11   20.29  669.29   19.74
  631.46   19.17  595.37   18.61  594.79   18.61  555.80   17.99  555.80   17.99
  504.58   17.14  484.80   16.80  459.77   16.36  465.59   16.46  408.56   15.42
  433.00   15.87  403.90   15.33  445.22   16.10  428.34   15.79  407.97   15.41
  419.61   15.63  413.21   15.51  426.01   15.75  409.72   15.44  407.97   15.41
  405.65   15.36  427.76   15.78  434.74   15.91  465.01   16.45  464.43   16.44
  460.93   16.38  466.75   16.48  467.92   16.50  476.65   16.66  509.24   17.22
  537.17   17.68  537.17   17.68  589.55   18.52  586.64   18.48  589.55   18.52
  606.43   18.79  626.22   19.09  641.35   19.32  612.83   18.89  583.73   15.26
  574.56   15.14  585.33   15.28  551.44   14.83  548.64   14.79  558.00   18.28
  551.41   18.17  556.80   18.26  583.15   18.69  615.48   19.20  647.21   19.68
  687.92   20.29  688.52   20.30  751.98   21.22  817.84   22.13  863.94   22.74
  895.08   23.15 1036.97   24.92 1194.43   26.74 1365.66   28.59 1547.67   30.44
 1695.55   31.86 1919.47   33.90 2136.21   35.76 2235.59   36.59 2375.69   37.71
 2456.52   38.35 2463.70   38.41 2437.36   38.20 2434.96   38.18 2227.21   36.52
 2103.28   35.49 1911.69   33.83 1749.44   32.36 1565.04   30.61 1406.38   29.02
 1241.73   27.27 1056.73   25.15  977.10   24.19  870.53   22.83  759.17   21.32
  698.10   20.44  616.67   19.21  571.77   18.50  531.06   17.83  535.85   17.91
  484.36   17.03  476.58   16.89  458.02   16.56  469.39   16.76  470.59   16.79
  439.46   16.22  446.04   16.34  467.00   16.72  489.63   14.18  503.18   14.38
  514.68   14.54  528.65   14.74  555.76   15.11  540.54   18.65  610.04   19.81
  584.94   19.40  555.98   18.91  591.38   19.51  577.86   19.28  599.10   19.63
  579.15   19.31  551.48   18.84  556.63   18.93  561.13   19.00  524.45   18.37
  499.36   17.93  498.07   17.90  487.77   17.72  472.33   17.43  444.66   16.92
  422.78   16.49  419.56   16.43  435.01   16.73  445.30   16.93  443.37   16.89
  404.12   16.13  445.95   16.94  439.51   16.82  451.74   17.05  414.41   16.33
  445.30   16.93  436.29   16.76  452.38   17.06  430.50   16.64  452.38   17.06
  436.94   16.77  470.40   17.40  459.46   17.19  459.46   17.19  451.09   17.04
  491.63   17.79  496.78   17.88  534.11   18.54  547.62   18.77  560.49   18.99
  565.64   19.08  632.56   20.18  643.50   20.35  668.60   20.74  660.88   20.62
  671.17   20.78  663.76   16.59  674.13   16.72  682.01   16.82  657.13   16.51
  641.79   16.31  610.28   15.91  662.04   20.20  620.13   19.55  597.93   19.20
  603.48   19.29  599.17   19.22  590.54   19.08  584.37   18.98  584.99   18.99
  628.14   19.68  625.67   19.64  626.91   19.66  658.96   20.15  725.54   21.15
  747.73   21.47  840.81   22.77  919.71   23.81 1055.32   25.51 1092.31   25.95
 1153.95   26.67 1235.32   27.60 1328.40   28.62 1388.81   29.26 1409.77   29.48
 1478.19   30.19 1417.17   29.56 1414.09   29.52 1387.58   29.25 1326.55   28.60
 1317.92   28.50 1280.94   28.10 1173.68   26.90 1079.98   25.80  980.74   24.59
  940.05   24.07  912.31   23.71  735.40   21.29  758.21   21.62  729.23   21.20
  658.34   20.15  642.32   19.90  627.52   19.67  584.37   18.98  560.95   18.60
  527.66   18.04  548.00   18.38  532.59   18.12  527.05   18.02  520.27   17.91
  520.88   17.92  532.13   14.63  521.27   14.48  545.40   14.81  596.88   15.49
  567.12   15.10  632.98   19.17  641.11   19.30  709.06   20.29  721.25   20.47
  768.29   21.12  764.81   21.07  804.88   21.62  877.47   22.57  891.41   22.75
  887.34   22.70  905.34   22.93  916.96   23.08  885.60   22.68  884.44   22.66
  851.92   22.24  796.17   21.50  791.52   21.44  768.29   21.12  718.93   20.43
  694.54   20.08  637.05   19.23  599.88   18.66  595.82   18.60  556.33   17.97
  574.33   18.26  510.45   17.22  479.09   16.68  468.06   16.49  473.29   16.58
  455.28   16.26  464.58   16.43  440.19   15.99  464.58   16.43  403.02   15.30
  430.89   15.82  419.86   15.61  396.05   15.17  415.80   15.54  401.86   15.28
  415.80   15.54  405.92   15.35  416.38   15.55  412.89   15.48  427.41   15.75
  407.08   15.38  414.63   15.52  436.70   15.92  423.34   15.68  445.99   16.09
  446.76   13.12  436.35   12.97  484.53   13.67  474.13   13.52  488.41   16.77
  493.59   16.86  488.98   16.78  543.70   17.70  537.94   17.60  584.59   18.35
  598.99   18.57  642.76   19.24  664.65   19.57  734.34   20.57  740.10   20.65
  794.24   21.39  896.76   22.73  904.82   22.83  956.66   23.47  992.37   23.91
  958.39   23.49 1013.68   24.16  968.75   23.62 1019.44   24.23 1030.38   24.36
 1005.62   24.07  980.85   23.77  937.65   23.24  926.71   23.10  911.74   22.92
  829.37   21.86  790.21   21.33  733.77   20.56  648.52   19.33  668.68   19.62
  612.24   18.78  597.26   18.55  566.74   18.07  595.54   18.52  539.67   17.63
  555.80   17.89  558.68   17.94  520.09   17.31  523.54   17.36  555.22   17.88
  545.43   17.72  533.91   17.54  590.93   18.45  605.33   18.67  654.86   19.42
  665.80   19.58  661.20   19.51  698.06   20.05  734.65   17.27  794.32   17.96
  842.62   18.49  846.27   18.53  893.35   19.04  918.92   19.31  923.27   24.02
  954.52   24.43  988.28   24.86  963.28   24.54  987.03   24.84 1034.54   25.43
  997.03   24.96  984.53   24.81 1029.54   25.37  967.65   24.59  945.15   24.31
  933.27   24.15  883.26   23.50  901.39   23.74  842.63   22.95  843.88   22.97
  847.63   23.02  822.63   22.68  887.64   23.56  898.27   23.70  945.77   24.31
  922.64   24.02  950.15   24.37  977.65   24.72 1047.66   25.59 1094.55   26.16
 1112.05   26.37 1103.30   26.26 1107.05   26.31 1083.29   26.02 1153.93   26.86
 1105.17   26.28 1039.54   25.49 1065.79   25.81 1043.29   25.54 1018.91   25.24
  997.03   24.96  927.02   24.07  912.64   23.88  810.13   22.50  760.12   21.80
  726.36   21.31  690.73   20.78  640.73   20.01  614.47   19.60  575.71   18.97
  530.71   18.21  533.83   18.27  523.21   18.08  468.20   17.11  490.08   17.50
  467.57   17.10  458.82   16.94  442.57   16.63  398.63   23.41  465.98   25.31
  424.74   24.16  468.73   25.38  459.11   25.12  426.12   24.20  439.86   24.59
  412.37   23.81  445.36   24.74  501.72   26.26  427.49   24.24  489.35   25.94
  478.35   25.64  478.35   25.64  460.48   25.16  471.48   25.46  525.09   26.87
  493.47   26.04  497.59   26.15  559.45   27.73  615.81   29.09  592.44   28.54
  567.70   27.93  589.69   28.47  520.96   26.76  611.68   29.00  555.33   27.63
  580.07   28.24  533.33   27.08  519.59   26.72  607.56   28.90  571.82   28.04
  592.44   28.54  542.96   27.32  503.09   26.30  514.09   26.58  511.34   26.51
  508.59   26.44  479.73   25.68  511.34   26.51  481.10   25.72  493.47   26.04
  514.09   26.58  498.97   26.19  485.22   25.83  531.96   27.04  467.35   25.35
  518.21   26.69  490.72   25.97  581.44   28.27  527.84   26.94  562.20   27.80
  481.10   25.72                                                                