                                                                                
BANK 1 2431 487 CONST  602.500    5.000 0 0 ESD                                 
  523.12   24.36  510.64   24.07  542.41   24.81  518.58   24.26  531.06   24.55
  503.83   23.91  489.08   23.56  526.52   24.44  500.43   23.83  467.52   23.03
  526.52   24.44  462.98   22.92  515.18   24.18  518.58   24.26  509.50   24.04
  475.46   23.23  503.83   23.91  576.45   25.58  504.96   23.94  515.18   24.18
  507.23   23.99  515.18   24.18  450.50   22.61  461.84   22.89  506.10   23.96
  484.54   23.45  489.08   23.56  520.85   24.31  510.64   24.07  500.43   23.83
  501.56   23.86  516.31   24.21  478.87   23.31  433.48   22.18  502.70   23.88
  482.27   23.39  465.25   22.98  508.37   24.02  468.65   23.06  482.27   23.39
  433.48   22.18  467.52   23.03  501.56   23.86  485.67   23.48  493.62   23.67
  427.80   22.03  498.16   23.78  520.85   24.31  557.16   25.14  480.00   23.34
  445.96   22.50  464.11   22.95  505.86   16.91  480.99   16.49  501.34   16.83
  487.21   16.59  470.26   16.30  481.56   16.50  501.91   16.84  508.12   16.95
  491.73   16.67  508.12   16.95  444.82   15.86  461.78   16.16  486.08   16.58
  493.99   16.71  480.43   16.48  491.17   16.66  492.86   16.69  474.21   16.37
  513.78   17.04  492.86   16.69  481.56   16.50  484.39   16.55  486.08   16.58
  491.73   16.67  467.43   16.25  490.04   16.64  496.82   16.76  448.78   15.93
  477.04   16.42  462.34   16.17  478.17   16.44  499.08   16.80  486.08   16.58
  499.08   16.80  440.30   15.78  446.52   15.89  467.99   16.26  504.73   16.89
  506.99   16.93  475.91   16.40  480.99   16.49  464.04   16.20  480.99   16.49
  466.86   16.24  484.39   16.55  495.69   16.74  486.08   16.58  464.04   16.20
  492.86   16.69  478.73   16.45  486.65   16.58  460.65   16.14  488.91   16.62
  468.18   13.21  485.32   13.45  477.12   13.34  456.99   13.05  468.55   13.22
  490.54   13.52  455.88   13.04  487.56   13.48  477.94   16.29  495.70   16.59
  464.06   16.05  490.15   16.49  483.49   16.38  482.38   16.36  477.38   16.28
  487.37   16.45  482.93   16.37  479.05   16.31  486.26   16.43  486.82   16.44
  450.18   15.81  482.38   16.36  498.47   16.63  497.92   16.63  480.71   16.34
  494.03   16.56  489.04   16.48  498.47   16.63  469.61   16.15  447.96   15.77
  454.62   15.89  471.83   16.18  456.84   15.92  492.92   16.54  489.04   16.48
  475.71   16.25  459.62   15.97  446.29   15.74  480.71   16.34  446.85   15.75
  468.50   16.13  477.38   16.28  490.70   16.50  452.96   15.86  487.37   16.45
  477.94   16.29  477.94   16.29  482.93   16.37  481.82   16.35  490.70   16.50
  443.52   15.69  469.61   16.15  466.83   16.10  455.73   15.91  477.94   16.29
  480.22   13.35  486.54   13.44  475.02   13.28  463.51   13.12  471.68   13.24
  463.84   16.03  455.53   15.89  463.84   16.03  478.80   16.29  471.60   16.17
  481.02   16.33  463.29   16.02  479.36   16.30  459.41   15.96  454.97   15.88
  479.91   16.31  459.41   15.96  472.15   16.18  476.03   16.24  471.04   16.16
  467.72   16.10  453.87   15.86  451.09   15.81  456.64   15.91  452.76   15.84
  467.72   16.10  474.92   16.22  467.17   16.09  482.13   16.35  446.11   15.72
  473.26   16.19  468.83   16.12  475.48   16.23  447.22   15.74  475.48   16.23
  493.21   16.53  480.47   16.32  458.30   15.94  471.60   16.17  502.63   16.69
  455.53   15.89  466.06   16.07  430.59   15.45  461.07   15.98  443.34   15.67
  456.64   15.91  444.44   15.69  463.84   16.03  446.11   15.72  484.90   16.39
  467.72   16.10  487.12   16.43  435.02   15.53  469.94   16.14  473.26   16.19
  441.36   12.77  452.82   12.94  461.33   13.06  459.33   16.01  442.58   15.72
  449.84   15.84  476.63   16.31  449.84   15.84  449.28   15.84  450.40   15.85
  457.10   15.97  479.98   16.37  463.79   16.09  459.89   16.02  442.58   15.72
  488.91   16.52  468.82   16.18  484.44   16.44  449.28   15.84  492.81   16.58
  500.63   16.72  515.70   16.97  528.53   17.18  560.90   17.69  526.86   17.15
  608.90   18.43  658.02   19.16  690.94   19.64  747.87   20.43  832.71   21.56
  937.07   22.87 1096.69   24.74 1278.64   26.71 1620.76   30.08 1819.45   31.87
 2043.25   33.77 2216.83   35.17 2173.29   34.83 1981.30   33.25 1637.51   30.23
 1280.87   26.74  910.84   22.55  742.29   20.35  552.53   17.56  507.33   16.83
  442.58   15.72  474.95   16.28  481.65   16.40  457.10   15.97  487.79   16.50
  453.75   15.91  444.26   15.75  475.51   16.29  440.35   15.68  430.43   12.88
  472.47   13.50  453.19   13.22  475.17   13.54  475.98   16.72  485.38   16.89
  490.08   16.97  463.64   16.51  471.28   16.64  506.54   17.25  497.14   17.09
  507.13   17.26  523.58   17.54  570.59   18.31  601.73   18.80  647.57   19.51
  716.32   20.52  780.37   21.41  864.99   22.55 1085.35   25.25 1345.09   28.11
 1611.87   30.78 1894.52   33.37 2143.09   35.49 2242.40   36.30 2169.53   35.71
 1932.72   33.70 1637.14   31.02 1266.93   27.29  951.37   23.64  659.32   19.68
  549.43   17.97  468.34   16.59  462.47   16.49  460.11   16.44  447.19   16.21
  448.95   16.24  450.71   16.27  444.84   16.17  461.29   16.46  437.20   16.03
  417.81   15.67  471.28   16.64  453.06   16.32  457.76   16.40  453.06   16.32
  480.09   16.80  415.45   15.62  446.60   16.20  464.23   16.52  467.75   16.58
  465.40   16.54  473.63   16.68  447.09   13.32  478.83   13.78  466.13   13.60
  457.80   13.48  450.66   13.37  428.44   13.04  449.38   16.66  474.07   17.11
  430.86   16.31  451.23   16.69  419.75   16.10  465.43   16.95  437.04   16.42
  443.83   16.55  466.05   16.96  427.78   16.25  493.83   17.46  480.25   17.22
  501.23   17.59  520.37   17.92  580.25   18.93  564.81   18.67  653.09   20.08
  771.60   21.82  798.15   22.20  879.63   23.30  921.60   23.85  854.32   22.96
  790.74   22.09  733.33   21.28  614.20   19.47  558.64   18.57  483.95   17.28
  474.07   17.11  427.16   16.24  459.26   16.84  437.04   16.42  427.16   16.24
  425.93   16.21  443.21   16.54  433.95   16.37  454.32   16.75  450.62   16.68
  457.41   16.80  488.89   17.37  433.33   16.36  470.99   17.05  469.75   17.03
  445.68   16.59  461.11   16.87  430.25   16.30  420.99   16.12  433.95   16.37
  423.46   16.17  455.74   13.89  444.30   13.72  463.79   14.02  453.62   13.86
  442.61   13.69  439.64   13.65  433.97   16.68  422.44   16.46  452.56   17.03
  457.69   17.13  427.56   16.56  455.13   17.08  437.82   16.75  406.41   16.14
  419.87   16.41  425.64   16.52  434.62   16.69  460.90   17.19  460.90   17.19
  425.00   16.51  452.56   17.03  425.00   16.51  432.69   16.65  441.03   16.81
  449.36   16.97  435.90   16.72  419.23   16.39  443.59   16.86  492.95   17.78
  444.87   16.89  435.90   16.72  426.92   16.54  435.90   16.72  468.59   17.33
  446.79   16.92  430.77   16.62  453.21   17.04  435.26   16.70  454.49   17.07
  442.31   16.84  439.10   16.78  451.28   17.01  450.64   17.00  419.23   16.39
  444.23   16.87  448.72   16.96  421.79   16.44  427.56   16.56  453.85   17.06
  426.28   16.53  467.95   17.32  470.51   17.37  432.69   16.65  498.72   17.88
  417.95   16.37  455.59   13.71  419.68   13.16  444.03   13.54  434.95   13.40
  455.66   16.85  439.46   16.55  400.81   15.81  427.61   16.33  429.48   16.36
  420.76   16.19  436.34   16.49  456.91   16.88  440.08   16.56  448.81   16.73
  455.66   16.85  448.81   16.73  434.47   16.46  444.44   16.64  422.00   16.22
  430.11   16.37  414.52   16.07  442.57   16.61  413.90   16.06  423.25   16.24
  456.91   16.88  430.11   16.37  431.35   16.40  435.72   16.48  420.13   16.18
  420.76   16.19  395.82   15.71  438.83   16.54  450.68   16.76  434.47   16.46
  428.24   16.34  420.13   16.18  425.74   16.29  466.26   17.05  407.04   15.93
  410.16   15.99  410.78   16.00  417.64   16.13  433.22   16.43  441.95   16.60
  458.78   16.91  433.22   16.43  455.04   16.84  430.11   16.37  423.25   16.24
  420.13   16.18  401.43   15.82  414.52   16.07  451.30   16.77  414.87   12.96
  434.32   13.27  440.80   13.36  429.86   13.20  429.05   13.18  446.95   16.09
  438.85   15.94  449.27   16.13  438.85   15.94  441.16   15.98  433.06   15.83
  419.16   15.58  404.11   15.30  438.27   15.93  423.80   15.66  465.48   16.42
  426.11   15.71  430.74   15.79  455.06   16.23  445.22   16.05  427.85   15.74
  433.64   15.84  406.43   15.34  431.90   15.81  424.37   15.67  445.80   16.07
  410.48   15.42  422.06   15.63  416.27   15.52  426.69   15.72  423.22   15.65
  440.01   15.96  404.11   15.30  429.58   15.77  401.22   15.24  429.01   15.76
  426.11   15.71  437.69   15.92  472.43   16.54  436.53   15.90  452.16   16.18
  441.74   15.99  452.74   16.19  438.85   15.94  433.64   15.84  411.64   15.44
  433.64   15.84  394.85   15.12  403.53   15.28  425.53   15.70  417.43   15.55
  406.43   15.34  446.37   16.08  426.69   15.72  448.11   16.11  414.40   12.72
  420.64   12.81  440.93   13.12  438.59   13.08  417.52   12.76  430.13   15.91
  441.31   16.11  407.77   15.49  417.18   15.67  458.37   16.42  418.95   15.70
  393.06   15.21  458.96   16.43  445.43   16.19  447.78   16.23  436.01   16.02
  436.60   16.03  435.42   16.01  446.01   16.20  453.66   16.34  441.89   16.12
  413.06   15.59  408.36   15.50  436.01   16.02  411.30   15.56  428.95   15.89
  429.54   15.90  431.89   15.94  499.56   17.14  466.61   16.57  485.44   16.90
  556.05   18.09  582.52   18.51  721.39   20.60  887.32   22.85 1072.67   25.12
 1220.95   26.80 1339.81   28.08 1332.74   28.00 1272.14   27.36 1115.62   25.62
  889.09   22.87  711.97   20.47  531.92   17.69  518.39   17.46  466.02   16.56
  438.95   16.07  450.72   16.29  443.66   16.16  417.18   15.67  443.66   16.16
  456.60   16.39  426.01   15.83  418.80   12.76  433.18   12.97  436.29   13.02
  422.69   12.81  435.90   13.01  402.92   15.35  442.69   16.09  428.07   15.82
  439.77   16.04  444.44   16.12  438.60   16.02  439.77   16.04  432.16   15.90
  408.19   15.45  448.54   16.20  428.65   15.83  423.98   15.75  409.94   15.48
  414.62   15.57  424.56   15.76  416.37   15.60  456.73   16.34  409.94   15.48
  442.69   16.09  412.28   15.53  416.37   15.60  452.63   16.27  440.94   16.06
  430.99   15.88  438.01   16.00  398.83   15.27  443.27   16.10  450.88   16.24
  415.79   15.59  449.12   16.21  454.39   16.30  466.08   16.51  458.48   16.37
  467.25   16.53  490.64   16.94  515.79   17.37  504.09   17.17  556.14   18.03
  610.53   18.90  666.67   19.74  802.92   21.67  853.80   22.34 1003.51   24.22
 1184.21   26.32 1506.43   29.68 1824.56   32.66 2146.78   35.43 2301.75   36.69
 2238.60   36.18 2101.83   28.66 1814.52   26.63 1396.27   23.36 1021.01   19.98
  761.85   17.26  590.64   15.19  531.13   17.56  507.91   17.17  463.79   16.41
  464.95   16.43  463.21   16.40  410.97   15.45  471.34   16.54  419.10   15.60
  459.15   16.33  431.87   15.83  467.28   16.47  440.57   15.99  444.64   16.07
  477.72   16.65  464.37   16.42  484.69   16.77  513.13   17.26  579.89   18.35
  747.64   20.83  965.90   23.68 1355.97   28.06 2004.35   34.11 3121.17   42.56
 4738.35   52.44 7131.62   64.3410075.75   76.4812902.63   86.5414826.30   92.77
15016.69   93.3613735.60   89.2911036.42   80.04 7946.60   67.92 5029.75   54.03
 2825.71   40.50 1503.41   29.54  869.54   22.47  609.49   18.81  546.22   17.81
  497.46   16.99  460.89   16.36  528.81   17.52  537.51   17.66  531.71   17.57
  608.91   18.80  747.64   20.83  965.90   23.68 1219.56   26.61 1476.21   24.69
 1810.26   27.34 2066.27   29.21 2090.64   29.38 1893.26   27.96 1636.83   26.00
 1328.16   29.30  996.61   25.38  754.89   22.09  599.77   19.69  501.53   18.00
  471.16   17.45  453.71   17.12  436.90   16.80  433.67   16.74  465.34   17.34
  410.41   16.29  422.69   16.53  441.43   16.89  416.87   16.41  408.47   16.25
  456.29   17.17  453.06   17.11  462.11   17.28  491.19   17.82  517.05   18.28
  491.84   17.83  531.27   18.53  539.67   18.68  515.11   18.25  495.07   17.89
  515.75   18.26  545.48   18.78  548.72   18.83  550.01   18.85  557.12   18.98
  514.46   18.23  485.38   17.71  487.32   17.75  422.69   16.53  444.01   16.94
  419.45   16.47  444.01   16.94  429.15   16.65  412.99   16.34  403.94   16.16
  434.97   16.77  431.09   16.69  420.75   16.49  416.87   16.41  408.47   16.25
  420.10   16.48  405.88   16.20  414.93   16.38  406.53   16.21  412.32   13.14
  411.90   13.14  407.71   13.07  419.44   13.26  422.79   13.31  424.51   16.61
  429.71   16.71  382.25   15.76  434.26   16.80  421.26   16.55  412.16   16.37
  427.76   16.68  395.90   16.04  389.40   15.91  399.15   16.11  406.96   16.27
  433.61   16.79  410.21   16.33  406.96   16.27  424.51   16.61  423.21   16.59
  423.21   16.59  416.71   16.46  384.20   15.80  417.36   16.47  421.26   16.55
  414.11   16.41  403.71   16.20  421.91   16.56  426.46   16.65  399.80   16.12
  416.06   16.45  405.66   16.24  386.15   15.84  431.66   16.75  403.71   16.20
  409.56   16.32  438.16   16.88  412.81   16.38  416.06   16.45  415.41   16.43
  408.26   16.29  412.81   16.38  432.96   16.78  392.00   15.96  388.10   15.88
  411.51   16.36  439.46   16.90  429.71   16.71  454.41   17.19  389.40   15.91
  419.96   16.52  441.41   16.94  392.65   15.98  414.40   13.31  420.81   13.41
  415.68   13.33  417.81   13.36  411.15   15.83  400.79   15.62  403.23   15.67
  391.05   15.43  420.89   16.01  410.54   15.81  428.20   16.15  400.79   15.62
  439.17   16.36  391.05   15.43  435.51   16.29  428.20   16.15  385.56   15.32
  376.43   15.14  425.77   16.10  411.76   15.84  385.56   15.32  417.24   15.94
  409.93   15.80  403.84   15.68  419.07   15.98  403.23   15.67  402.62   15.66
  406.88   15.74  400.18   15.61  415.41   15.91  397.75   15.57  407.49   15.75
  411.76   15.84  430.03   16.18  460.48   16.75  428.20   16.15  474.49   17.00
  583.52   18.85  682.81   20.39  716.92   20.90  807.07   22.17  863.10   22.93
  816.20   22.30  773.56   21.71  716.31   20.89  618.24   19.41  548.20   18.27
  475.10   17.01  472.06   16.96  425.77   16.10  400.79   15.62  389.22   15.40
  395.31   15.52  404.45   15.70  411.24   12.83  422.44   13.00  421.64   12.99
  425.24   13.04  449.24   13.41  476.36   16.94  470.34   16.83  561.88   18.40
  736.53   21.06  964.17   24.10 1246.61   27.40 1595.30   31.00 1966.88   34.42
 2198.74   36.39 2263.78   36.92 2063.23   35.25 1764.53   32.60 1347.18   28.48
  980.43   24.30  753.39   21.30  591.39   18.87  452.27   16.50  466.12   16.75
  458.30   16.61  437.82   16.24  413.13   15.77  402.89   15.58  408.31   15.68
  405.90   15.63  392.05   15.37  424.57   15.99  402.89   15.58  424.57   15.99
  410.72   15.73  405.30   15.62  418.55   15.88  394.46   15.41  423.97   15.98
  413.13   15.77  433.00   16.15  389.64   15.32  418.55   15.88  387.83   15.28
  392.05   15.37  374.59   15.02  417.95   15.87  442.64   16.33  391.45   15.35
  437.22   16.23  436.62   16.22  380.61   15.14  398.07   15.48  421.56   15.93
  438.42   16.25  418.61   13.10  396.47   12.75  416.15   13.06  423.94   13.18
  441.16   13.45  411.85   15.86  411.85   15.86  428.35   16.18  455.85   16.69
  457.68   16.72  443.02   16.45  509.01   17.64  575.62   18.75  566.45   18.60
  635.50   19.71  717.38   20.94  861.59   22.95 1082.80   25.72 1423.16   29.49
 2000.00   34.96 2585.40   39.75 3223.95   44.39 3715.25   47.65 3732.36   47.76
 3252.67   44.58 2772.99   41.16 2100.21   35.82 1515.43   30.43  996.64   24.68
  754.05   21.47  610.45   19.31  469.29   16.93  452.80   16.63  433.85   16.28
  435.07   16.31  394.13   15.52  408.19   15.79  400.24   15.64  405.74   15.75
  387.41   15.39  405.13   15.73  360.53   14.84  405.74   15.75  419.19   16.00
  386.80   15.37  408.19   15.79  435.07   16.31  421.63   16.05  420.41   16.03
  400.86   15.65  424.69   16.11  421.02   16.04  424.69   16.11  422.85   16.07
  418.59   13.11  408.33   12.94  415.72   13.06  412.84   13.02  426.80   13.23
  433.89   16.58  542.83   18.54  565.00   18.92  651.78   20.32  862.71   23.38
 1052.73   25.82 1347.27   29.21 1582.26   31.66 1686.78   32.69 1660.17   32.43
 1490.42   30.73 1295.33   28.64  988.76   25.03  787.33   22.33  612.51   19.70
  540.30   18.50  484.56   17.52  446.56   16.82  407.28   16.06  404.12   16.00
  440.22   16.70  430.72   16.52  392.72   15.77  435.79   16.61  433.25   16.57
  428.19   16.47  440.86   16.71  461.12   17.09  488.36   17.59  524.47   18.23
  497.86   17.76  561.20   18.85  535.87   18.42  540.93   18.51  522.57   18.19
  520.67   18.16  468.09   17.22  463.02   17.13  433.89   16.58  395.88   15.84
  424.39   16.40  408.55   16.09  395.25   15.82  393.98   15.80  414.89   16.21
  416.15   16.24  423.75   16.38  402.22   15.96  391.45   15.75  411.45   13.34
  393.73   13.04  415.34   13.40  406.70   13.26  407.13   13.27  382.35   15.78
  432.50   16.78  403.84   16.22  423.38   16.61  400.59   16.15  399.93   16.14
  392.12   15.98  390.16   15.94  418.82   16.52  420.13   16.54  423.38   16.61
  431.85   16.77  411.01   16.36  407.10   16.28  420.78   16.56  426.64   16.67
  411.66   16.37  433.81   16.81  413.61   16.41  392.77   15.99  410.36   16.35
  393.42   16.01  420.78   16.56  431.85   16.77  417.52   16.49  448.79   17.10
  397.98   16.10  429.25   16.72  446.18   17.05  468.33   17.47  469.63   17.49
  557.56   19.06  586.88   19.55  605.11   19.85  641.59   20.44  618.79   20.08
  574.50   19.34  558.87   19.08  476.80   17.62  435.76   16.85  464.42   17.39
  424.04   16.62  440.32   16.94  424.69   16.63  441.62   16.96  407.75   16.30
  409.05   16.32  409.05   16.32  400.59   16.15  401.07   13.08  397.65   13.03
  435.20   13.63  424.96   13.47  416.85   13.34  421.12   16.52  425.66   16.61
  399.74   16.09  417.23   16.44  413.35   16.36  404.92   16.20  420.47   16.51
  422.42   16.54  436.67   16.82  419.18   16.48  434.08   16.77  424.36   16.58
  412.05   16.34  421.12   16.52  430.19   16.69  409.46   16.29  406.22   16.22
  434.73   16.78  480.73   17.65  531.91   18.56  638.16   20.33  725.62   21.68
  735.34   21.83  828.64   23.17  793.65   22.68  818.92   23.03  732.75   21.79
  686.75   21.09  636.86   20.31  590.22   19.55  543.57   18.77  529.32   18.52
  463.88   17.34  446.39   17.01  459.35   17.25  458.05   17.23  437.32   16.83
  449.63   17.07  437.97   16.84  492.39   17.86  524.78   18.44  504.05   18.07
  653.06   20.57  750.89   22.06  834.47   23.25  910.92   24.29  936.18   24.63
  918.04   24.39 1019.76   25.70 1005.00   20.46 1141.25   21.81 1367.92   23.87
 1792.50   27.33 2422.50   31.77 2995.80   42.42 3421.62   45.33 3634.23   46.72
 3432.43   45.40 2992.79   42.40 2477.48   38.57 1948.95   34.21 1401.80   29.02
 1037.84   24.97  752.55   21.26  617.42   19.26  494.29   17.23  476.28   16.91
  440.24   16.26  404.80   15.59  406.61   15.63  412.01   15.73  425.23   15.98
  428.23   16.04  419.22   15.87  390.99   15.32  411.41   15.72  410.21   15.70
  395.20   15.41  428.83   16.05  421.62   15.91  417.42   15.83  383.18   15.17
  383.78   15.18  384.98   15.21  434.83   16.16  437.24   16.21  425.23   15.98
  467.27   16.75  457.66   16.58  540.54   18.02  563.96   18.40  669.67   20.06
  697.30   20.46  766.37   21.45  745.35   21.16  742.94   21.12  659.46   19.90
  624.62   19.37  583.78   18.72  525.53   17.77  464.26   16.70  450.45   16.45
  430.94   13.21  425.27   13.12  413.93   12.95  392.87   12.61  396.92   12.68
  395.71   12.66  398.68   15.49  405.90   15.63  373.98   15.01  385.43   15.24
  406.50   15.65  402.29   15.57  404.10   15.60  423.97   15.98  414.94   15.81
  458.90   16.62  499.85   17.35  560.07   18.37  649.80   19.78  780.49   21.68
  985.85   24.37 1220.72   27.11 1398.98   29.03 1441.13   29.46 1473.05   29.78
 1366.46   28.69 1150.86   26.33  997.89   24.51  804.58   22.01  664.86   20.01
  560.67   18.38  478.77   16.98  460.10   16.65  424.57   15.99  417.34   15.85
  410.72   15.73  395.06   15.42  411.32   15.74  399.28   15.51  426.98   16.04
  402.89   15.58  407.71   15.67  404.10   15.60  413.73   15.78  420.96   15.92
  397.47   15.47  411.32   15.74  412.53   15.76  410.12   15.72  385.43   15.24
  405.30   15.62  372.78   14.98  390.24   15.33  452.88   16.51  439.43   13.37
  425.59   13.16  449.19   13.52  453.26   13.58  448.78   13.51  473.20   13.88
  478.38   17.28  431.54   16.42  447.78   16.72  419.67   16.19  407.81   15.96
  408.43   15.97  422.79   16.25  395.94   15.72  379.70   15.40  397.81   15.76
  402.19   15.85  402.81   15.86  390.32   15.61  419.05   16.18  392.19   15.65
  397.19   15.75  400.31   15.81  399.69   15.80  409.06   15.98  386.57   15.54
  394.69   15.70  425.92   16.31  412.18   16.04  404.68   15.90  379.70   15.40
  394.07   15.69  406.56   15.93  430.91   16.40  390.32   15.61  433.41   16.45
  397.19   15.75  412.80   16.06  456.52   16.88  454.02   16.84  439.03   16.56
  474.00   17.21  485.87   17.42  505.23   17.76  555.82   18.63  593.29   19.25
  651.37   20.17  708.82   21.04  800.62   22.36  965.50   24.56 1179.08   27.14
 1386.42   29.43 1826.07   33.77 2330.68   38.15 2658.16   33.62 3098.78   36.30
 3277.83   37.34 3294.42   37.43 2951.62   35.43 2539.99   40.52 2067.54   36.55
 1674.58   32.90 1214.41   28.02  954.60   24.84  748.42   21.99  572.63   19.24
  520.28   18.34  498.95   17.96  455.65   17.16  433.03   16.73  431.09   16.69
  423.33   16.54  419.45   16.47  390.37   15.88  411.05   16.30  401.36   16.11
  440.14   16.87  418.16   16.44  442.07   16.90  384.55   15.77  427.86   16.63
  391.02   15.90  381.32   15.70  398.77   16.05  399.42   16.07  422.69   16.53
  407.17   16.22  404.59   16.17  389.08   15.86  407.82   16.24  403.94   16.16
  381.97   15.71  421.39   16.50  408.47   16.25  384.55   15.77  398.77   16.05
  405.24   16.18  418.16   16.44  388.43   15.84  416.87   16.41  400.06   16.08
  406.53   16.21  399.42   16.07  395.54   15.99  451.12   17.08  435.61   16.78
  458.23   17.21  465.34   17.34  541.05   15.58  569.76   15.99  675.19   17.40
  793.18   18.86  943.92   20.58 1105.64   27.79 1363.37   30.86 1556.84   32.98
 1755.19   35.01 1823.64   35.69 1795.70   35.41 1747.51   34.94 1505.15   32.42
 1264.19   29.71 1114.02   27.89  914.96   25.28  773.88   23.25  698.45   22.09
  650.25   21.31  606.95   20.59  586.00   20.23  532.91   19.29  514.75   18.96
  479.13   18.29  440.72   17.54  454.69   17.82  450.50   17.74  446.31   17.66
  446.31   17.66  411.38   16.95  410.69   16.94  395.32   16.62  408.59   16.89
  400.21   16.72  456.09   17.85  409.99   16.92  400.21   16.72  414.18   17.01
  425.35   17.24  395.32   16.62  415.58   17.04  476.34   18.24  444.91   17.63
  425.35   17.24  477.04   18.25  468.66   18.09  471.45   18.15  465.86   18.04
  514.06   18.95  482.63   18.36  519.64   19.05  590.19   20.30  623.71   20.87
  720.80   22.44  865.37   24.58 1045.73   21.44 1261.21   23.55 1599.38   26.52
 1929.64   29.13 2184.38   37.86 2348.43   39.26 2433.73   39.96 2301.18   38.86
 1999.34   36.22 1700.13   33.40 1381.23   30.11 1200.13   28.06  892.39   24.20
  782.81   22.66  658.79   20.79  588.58   19.65  551.18   19.02  551.18   19.02
  578.08   19.48  656.17   20.75  706.04   21.52  885.17   24.10 1153.54   27.51
 1414.04   30.46 1825.46   34.61 2280.18   38.68 2822.83   43.04 3193.57   45.78
 3499.34   47.92 3451.44   47.59 3154.86   45.50 2929.79   43.85 2490.81   40.43
 2038.71   36.58 1745.41   33.84 1384.51   30.14 1268.37   28.85 1173.88   27.75
 1103.67   26.91 1017.06   25.83  924.54   24.63  891.08   24.18  889.76   24.16
  836.61   23.43  757.87   22.30  725.72   21.82  648.95   20.64  614.83   20.09
  566.27   19.28  493.44   17.99  481.63   17.78  432.41   16.84  477.69   17.70
  438.43   13.73  455.62   13.99  442.30   13.79  473.24   14.26  497.74   14.63
  496.73   17.38  549.02   18.27  603.13   19.15  707.10   20.73  721.08   20.94
  800.73   22.06  843.29   22.64  799.51   22.05  767.29   21.60  713.79   20.83
  704.06   20.69  613.47   19.31  544.76   18.20  509.50   17.60  491.87   17.29
  469.37   16.89  426.81   16.11  424.99   16.07  428.64   16.14  422.56   16.03
  435.93   16.28  423.16   16.04  410.40   15.80  384.86   15.30  412.22   15.83
  404.32   15.68  397.63   15.55  415.26   15.89  409.79   15.78  386.68   15.33
  431.07   16.19  399.45   15.58  400.67   15.61  405.53   15.70  380.60   15.21
  423.16   16.04  407.36   15.74  428.03   16.13  388.51   15.37  413.44   15.85
  392.16   15.44  390.33   15.41  395.80   15.51  386.08   15.32  422.56   16.03
  426.20   16.10  408.57   15.76  430.46   16.18  412.83   15.84  416.39   12.98
  415.58   12.97  416.39   12.98  414.37   12.95  420.84   13.05  405.46   12.81
  399.63   15.66  371.39   15.10  403.31   15.73  408.23   15.83  427.87   16.21
  429.10   16.23  437.69   16.39  438.31   16.40  465.93   16.91  502.15   17.56
  527.32   17.99  613.87   19.41  635.97   19.76  750.15   21.46  799.26   22.15
  883.36   23.29  953.96   24.20  881.52   23.26  816.45   22.39  823.20   22.48
  720.07   21.02  685.70   20.52  603.44   19.25  530.39   18.04  503.38   17.58
  486.80   17.29  486.80   17.29  453.04   16.68  438.92   16.41  438.92   16.41
  475.75   17.09  487.42   17.30  542.66   18.25  549.42   18.36  548.80   18.35
  579.50   18.86  543.89   18.27  548.80   18.35  561.08   18.56  571.52   18.73
  492.94   17.40  481.28   17.19  462.25   16.85  424.80   16.15  449.36   16.61
  415.59   15.97  405.16   15.77  384.28   15.36  391.04   15.49  404.59   12.76
  385.27   12.45  403.38   12.74  371.58   12.23  410.94   15.63  396.67   15.36
  390.72   15.24  388.34   15.20  402.02   15.46  397.26   15.37  394.29   15.31
  412.13   15.66  378.23   15.00  399.05   15.41  391.32   15.26  427.59   15.95
  402.62   15.47  395.48   15.34  407.97   15.58  429.38   15.98  387.75   15.19
  405.00   15.52  402.62   15.47  422.84   15.86  381.80   15.07  394.29   15.31
  410.35   15.62  388.94   15.21  462.68   16.59  397.86   15.38  405.00   15.52
  390.72   15.24  429.97   15.99  369.91   14.83  409.75   15.61  409.16   15.60
  441.27   16.20  405.59   15.53  448.41   16.33  421.05   15.82  448.41   16.33
  439.49   16.17  443.65   16.24  456.14   16.47  488.85   17.05  559.02   18.23
  554.27   18.16  604.82   18.97  654.77   19.73  669.64   19.96  790.37   21.68
  824.86   22.15  927.74   23.49 1063.34   25.15 1133.11   21.45 1179.82   21.89
 1236.67   22.41 1272.82   22.74 1208.01   27.18 1113.86   26.09 1069.85   25.57
  932.29   23.87  842.43   22.69  745.22   21.34  630.29   19.63  609.51   19.30
  540.42   18.18  493.35   17.37  461.56   16.80  440.78   16.42  438.94   16.38
  431.61   16.24  413.27   15.89  408.99   15.81  399.21   15.62  420.60   16.04
  416.93   15.97  412.65   15.88  397.37   15.59  434.05   16.29  421.21   16.05
  440.17   16.40  464.01   16.84  470.12   16.95  457.89   16.73  490.91   17.32
  512.91   17.71  592.39   19.03  544.09   18.24  594.83   19.07  544.70   18.25
  537.98   18.14  558.15   18.47  559.99   18.50  512.30   17.70  532.48   18.04
  493.96   17.38  493.35   17.37  443.83   16.47  440.17   16.40  465.23   16.86
  416.32   15.95  430.38   16.22  440.78   16.42  423.66   16.09  427.94   16.17
  459.73   16.76  467.82   13.77  464.98   13.73  492.55   14.13  516.47   14.47
  572.41   15.23  612.55   15.76  619.20   19.60  600.59   19.30  665.74   20.32
  637.20   19.88  629.75   19.77  580.11   18.97  572.05   18.84  555.30   18.56
  511.25   17.81  452.92   16.76  434.31   16.42  457.89   16.86  435.55   16.44
  424.38   16.23  439.27   16.51  435.55   16.44  407.63   15.90  425.62   16.25
  413.84   16.02  412.60   16.00  400.81   15.77  449.20   16.69  431.21   16.36
  411.35   15.98  420.66   16.16  424.38   16.23  395.84   15.67  423.14   16.20
  438.03   16.49  423.76   16.21  445.48   16.63  428.73   16.31  446.72   16.65
  461.61   16.92  454.79   16.80  480.84   17.27  518.07   17.93  547.23   18.43
  560.88   18.65  576.39   18.91  686.83   20.64  693.04   20.74  680.01   20.54
  785.48   22.08  825.81   22.64  833.88   22.75  842.56   22.86  863.66   23.15
  868.12   18.86  858.28   18.76  826.72   18.41  756.23   17.61  698.43   16.92
  642.69   16.23  628.09   19.46  569.02   18.52  560.58   18.38  565.40   18.46
  566.61   18.48  571.43   18.56  628.69   19.47  679.32   20.24  704.04   20.60
  767.93   21.51  784.81   21.75  862.57   22.80  874.02   22.95  851.72   22.66
  798.07   21.93  768.54   21.52  726.34   20.92  647.98   19.76  588.31   18.83
  560.58   18.38  561.18   18.39  508.14   17.50  465.94   16.76  492.47   17.23
  457.50   16.61  465.34   16.75  455.09   16.56  476.19   16.94  476.19   16.94
  488.25   17.16  507.53   17.49  493.67   17.25  514.77   17.61  528.03   17.84
  473.18   16.89  510.55   17.54  472.57   16.88  550.93   18.22  553.35   18.26
  603.38   19.07  633.51   19.54  644.36   19.71  702.83   20.58  777.58   21.65
  930.68   23.69 1054.85   25.22 1165.16   26.50 1241.04   22.17 1424.04   23.75
 1546.84   24.75 1609.03   25.25 1614.18   25.29 1620.92   25.34 1544.73   30.20
 1425.45   29.01 1340.42   28.13 1168.59   26.27 1015.06   24.48  880.43   22.80
  759.96   21.18  716.27   20.57  658.40   19.72  565.69   18.28  474.76   16.74
  473.58   16.72  462.36   16.52  435.78   16.04  427.52   15.89  421.02   15.77
  425.16   15.84  457.63   16.44  400.35   15.38  442.28   16.16  416.89   15.69
  400.35   15.38  409.80   15.56  423.97   15.82  443.46   16.18  425.16   15.84
  435.78   16.04  413.35   15.62  414.53   15.65  415.71   15.67  434.60   16.02
  415.12   15.66  390.91   15.19  432.24   15.98  409.21   15.54  401.54   15.40
  427.52   15.89  397.99   15.33  426.34   15.87  418.07   15.71  418.07   15.71
  442.87   16.17  423.97   15.82  393.86   15.25  405.08   15.47  421.61   15.78
  436.37   16.05  395.63   15.28  442.87   16.17  392.55   12.44  432.36   13.05
  397.28   12.51  416.99   12.82  415.80   12.80  435.86   15.97  406.03   15.41
  412.46   15.53  410.12   15.49  399.01   15.28  432.35   15.90  394.32   15.19
  421.24   15.70  410.71   15.50  424.16   15.75  430.01   15.86  451.66   16.26
  458.68   16.38  444.64   16.13  489.69   16.93  484.42   16.83  510.17   17.28
  538.25   17.75  549.95   17.94  649.41   19.49  686.85   20.05  758.23   21.06
  859.44   22.42  972.94   23.86 1041.39   24.68 1125.05   25.66 1242.07   26.96
 1297.06   27.55 1383.65   28.45 1440.98   29.04 1429.28   28.92 1391.84   28.54
 1375.46   28.37 1312.86   27.71 1234.46   26.87 1125.64   25.66 1054.26   24.84
  962.41   23.73  881.67   22.71  817.90   21.87  738.92   20.79  682.76   19.99
  579.20   18.41  640.05   19.35  599.09   18.72  635.95   19.29  604.36   18.80
  626.59   19.15  645.58   16.02  671.84   16.35  640.81   15.97  688.15   16.54
  691.73   16.59  667.88   20.13  694.57   20.53  635.12   19.63  615.71   19.33
  590.23   18.92  570.22   18.60  521.08   17.78  538.67   18.08  513.80   17.65
  490.75   17.25  447.07   16.47  466.48   16.82  430.69   16.16  455.57   16.62
  431.91   16.19  420.99   15.98  432.51   16.20  426.45   16.08  407.64   15.73
  422.20   16.00  456.17   16.63  431.30   16.18  424.02   16.04  412.50   15.82
  431.30   16.18  429.48   16.14  456.17   16.63  436.15   16.27  402.18   15.62
  419.78   15.96  451.93   16.56  459.81   16.70  506.52   17.53  493.78   17.31
  501.06   17.43  518.05   17.73  552.02   18.30  584.77   18.83  636.94   19.66
  704.88   20.68  754.02   21.39  885.65   23.18  948.74   23.99 1053.08   25.27
 1147.10   26.38 1214.44   27.14 1224.75   27.26 1292.08   28.00 1276.92   27.83
 1267.21   27.73 1155.56   21.56 1110.91   21.14 1074.31   20.79  978.98   19.84
  824.94   18.22  780.52   21.80  684.32   20.41  645.36   19.82  610.05   19.27
  520.55   17.80  516.29   17.73  496.19   17.38  481.58   17.12  427.40   16.13
  448.10   16.52  482.19   17.13  425.57   16.10  452.97   16.61  415.83   15.91
  416.44   15.92  410.35   15.81  442.01   16.40  459.67   16.73  457.23   16.68
  483.41   17.16  496.19   17.38  459.67   16.73  479.76   17.09  505.33   17.54
  534.55   18.04  545.51   18.22  579.60   18.79  610.65   19.28  671.54   20.22
  650.23   19.90  689.19   20.48  739.12   21.21  695.28   20.57  729.38   21.07
  714.76   20.86  678.23   20.32  664.23   20.11  691.02   20.51  734.25   21.14
  726.94   21.04  779.30   21.78  766.51   21.60  822.53   22.38  861.49   22.90
  917.50   23.63  963.77   24.22  977.17   24.39 1096.50   25.84 1067.88   25.50
 1057.47   20.47 1080.86   20.70 1070.15   20.60 1049.54   20.40 1049.91   24.72
  995.20   24.07  952.71   23.55  917.21   23.10  779.86   21.30  811.87   21.74
  750.76   20.90  718.75   20.45  676.27   19.84  618.07   18.97  609.34   18.83
  593.63   18.59  541.25   17.75  532.52   17.60  517.39   17.35  472.57   16.58
  462.10   16.40  483.63   16.78  424.27   15.71  446.38   16.12  445.80   16.11
  418.45   15.61  421.94   15.67  413.79   15.52  423.10   15.69  420.19   15.64
  437.65   15.96  431.83   15.85  452.20   16.22  419.61   15.63  452.20   16.22
  465.59   16.46  460.35   16.37  470.25   16.54  451.04   16.20  487.12   16.84
  512.73   17.27  515.06   17.31  527.86   17.53  538.34   17.70  542.99   17.78
  543.58   17.79  587.23   18.49  619.23   18.98  634.95   19.22  593.05   18.58
  580.24   18.38  620.40   19.00  598.28   18.66  622.73   19.04  588.52   15.32
  580.54   15.21  578.15   15.18  563.80   14.99  580.94   15.22  582.55   18.68
  616.67   19.21  626.25   19.36  628.65   19.40  694.51   20.39  715.46   20.70
  765.15   21.40  836.40   22.38  883.10   22.99  927.41   23.56 1062.72   25.22
 1236.94   27.21 1348.30   28.41 1572.82   30.69 1790.15   32.74 2028.44   34.85
 2096.09   35.43 2232.00   36.56 2320.61   37.27 2319.41   37.26 2333.78   37.38
 2302.65   37.13 2285.89   36.99 2112.86   35.57 1975.75   34.39 1832.06   33.12
 1603.35   30.98 1450.08   29.46 1278.85   27.67 1188.44   26.67 1033.98   24.88
  899.87   23.21  810.06   22.02  671.76   20.05  660.98   19.89  619.67   19.26
  558.00   18.28  523.87   17.71  496.33   17.24  482.56   17.00  456.82   16.54
  462.21   16.64  476.58   16.89  466.40   16.71  481.37   16.98  464.60   16.68
  495.14   17.22  491.54   17.15  505.91   17.40  568.08   15.28  558.64   15.15
  556.17   15.11  557.81   15.14  590.26   15.57  593.95   19.55  611.33   19.83
  636.42   20.24  640.93   20.31  593.95   19.55  569.50   19.14  549.55   18.81
  534.75   18.55  503.22   18.00  487.13   17.71  509.01   18.10  480.05   17.58
  489.70   17.75  473.62   17.46  467.18   17.34  454.31   17.10  442.73   16.88
  444.02   16.90  424.71   16.53  438.22   16.79  447.23   16.96  428.57   16.61
  431.15   16.66  429.21   16.62  445.30   16.93  429.86   16.63  404.12   16.13
  435.65   16.74  447.23   16.96  501.93   17.97  466.54   17.33  492.28   17.80
  472.97   17.45  483.91   17.65  487.77   17.72  533.46   18.53  535.39   18.56
  563.06   19.04  580.44   19.33  554.70   18.89  619.69   19.97  678.89   20.90
  676.96   20.87  658.94   20.59  689.83   21.07  675.68   20.85  693.69   21.13
  676.32   20.86  669.15   16.66  649.25   16.41  660.03   16.54  621.48   16.05
  640.96   16.30  646.77   16.38  623.82   19.61  595.47   19.16  567.73   18.71
  592.39   19.11  588.07   19.04  609.03   19.38  646.02   19.96  652.80   20.06
  671.91   20.35  719.99   21.07  784.10   21.98  834.03   22.67  898.75   23.54
  992.45   24.73 1094.78   25.98 1147.17   26.59 1263.68   27.91 1299.43   28.30
 1411.62   29.50 1374.02   29.10 1408.54   29.47 1418.40   29.57 1399.91   29.38
 1369.09   29.05 1339.50   28.74 1279.70   28.09 1196.49   27.16 1105.87   26.11
 1056.56   25.52  985.67   24.65  890.12   23.42  817.38   22.45  762.52   21.68
  721.22   21.09  710.74   20.93  676.84   20.43  604.72   19.31  610.88   19.41
  551.70   18.44  562.18   18.62  509.17   17.72  521.50   17.93  544.92   18.33
  528.90   18.06  528.90   18.06  539.37   18.23  534.44   18.15  559.72   18.57
  554.17   18.48  618.20   15.77  615.38   15.73  659.63   16.29  693.82   16.71
  715.94   16.97  743.90   20.78  780.49   21.29  810.10   21.69  818.23   21.80
  869.34   22.47  850.75   22.23  886.76   22.69  886.18   22.69  903.60   22.91
  918.12   23.09  850.17   22.22  823.46   21.87  785.13   21.35  754.94   20.94
  757.26   20.97  717.77   20.42  661.44   19.60  627.18   19.08  623.69   19.03
  581.30   18.37  570.85   18.21  554.01   17.94  536.59   17.65  492.45   16.91
  467.48   16.48  478.51   16.67  470.96   16.54  460.51   16.35  449.48   16.16
  430.31   15.81  429.73   15.80  462.25   16.38  410.57   15.44  437.86   15.95
  449.48   16.16  428.57   15.78  394.31   15.13  459.35   16.33  419.86   15.61
  443.09   16.04  450.64   16.18  439.02   15.97  426.25   15.73  425.09   15.71
  497.68   17.00  462.83   16.39  450.06   16.17  476.19   16.63  484.90   16.78
  484.92   13.67  508.82   14.00  502.26   13.91  560.08   14.69  539.09   17.62
  544.85   17.71  567.31   18.08  596.69   18.54  665.23   19.57  693.45   19.98
  737.22   20.61  746.44   20.73  823.61   21.78  875.45   22.45  878.91   22.50
  926.13   23.10  991.22   23.89  952.63   23.42 1015.98   24.19  993.52   23.92
 1062.63   24.74  989.49   23.87 1043.63   24.52  953.78   23.44  903.67   22.81
  925.56   23.09  850.68   22.13  794.24   21.39  724.55   20.43  718.79   20.35
  705.54   20.16  676.17   19.73  607.63   18.71  642.19   19.23  590.35   18.44
  569.62   18.11  579.41   18.27  552.34   17.84  552.34   17.84  559.83   17.96
  558.68   17.94  552.34   17.84  556.95   17.91  540.82   17.65  563.28   18.01
  583.44   18.33  656.01   19.44  684.23   19.85  691.14   19.95  741.25   20.66
  793.09   21.37  814.40   21.66  865.66   22.33  878.34   18.88  878.34   18.88
  918.92   19.31  919.33   19.32  942.47   19.56  965.60   19.80 1003.91   25.05
  988.28   24.86  985.78   24.82  932.65   24.15 1011.41   25.14  968.90   24.61
  889.51   23.58  889.51   23.58  905.14   23.79  879.51   23.45  862.63   23.22
  878.89   23.44  849.51   23.04  866.39   23.27  881.39   23.47  875.76   23.40
  903.27   23.76  904.52   23.78  954.52   24.43 1059.54   25.74 1062.04   25.77
  989.53   24.87 1117.67   26.43 1075.17   25.92 1060.17   25.74 1043.29   25.54
 1106.42   26.30 1099.55   26.22 1029.54   25.37 1078.29   25.96 1003.91   25.05
 1003.91   25.05  935.77   24.19  928.27   24.09  862.01   23.21  803.88   22.42
  814.50   22.56  758.87   21.78  708.24   21.04  649.48   20.15  633.22   19.90
  587.59   19.17  556.96   18.66  547.59   18.50  516.33   17.97  522.58   18.07
  486.33   17.44  466.95   17.08  463.20   17.02  444.44   16.67  456.95   16.90
  440.07   16.59  448.20   16.74  496.33   17.61  416.49   23.93  442.61   24.67
  426.12   24.20  489.35   25.94  493.47   26.04  489.35   25.94  460.48   25.16
  471.48   25.46  471.48   25.46  470.10   25.42  497.59   26.15  537.46   27.18
  461.86   25.20  504.47   26.33  553.95   27.59  538.83   27.22  508.59   26.44
  548.45   27.46  552.58   27.56  567.70   27.93  564.95   27.87  588.32   28.44
  621.31   29.22  589.69   28.47  555.33   27.63  578.69   28.20  551.20   27.53
  549.83   27.49  574.57   28.10  533.33   27.08  523.71   26.83  508.59   26.44
  509.97   26.48  456.36   25.05  516.84   26.65  493.47   26.04  512.71   26.55
  505.84   26.37  478.35   25.64  456.36   25.05  482.47   25.75  526.46   26.90
  487.97   25.90  562.20   27.80  523.71   26.83  542.96   27.32  544.33   27.35
  564.95   27.87  522.34   26.80  537.46   27.18  530.58   27.01  571.82   28.04
  545.70   27.39                                                                