                                                                                
BANK 1 2431 487 CONST  602.500    5.000 0 0 ESD                                 
  482.27   23.39  543.55   24.84  524.26   24.39  511.77   24.10  487.94   23.53
  492.48   23.64  510.64   24.07  483.40   23.42  511.77   24.10  511.77   24.10
  507.23   23.99  549.22   24.96  539.01   24.73  498.16   23.78  506.10   23.96
  516.31   24.21  510.64   24.07  535.60   24.65  500.43   23.83  519.72   24.28
  519.72   24.28  516.31   24.21  495.89   23.72  499.29   23.80  509.50   24.04
  500.43   23.83  491.35   23.61  515.18   24.18  523.12   24.36  469.79   23.09
  575.32   25.55  475.46   23.23  465.25   22.98  532.20   24.57  450.50   22.61
  456.17   22.75  492.48   23.64  536.74   24.68  559.43   25.20  518.58   24.26
  503.83   23.91  470.92   23.12  456.17   22.75  520.85   24.31  504.96   23.94
  509.50   24.04  476.60   23.26  491.35   23.61  518.58   24.26  500.43   23.83
  472.06   23.14  464.11   22.95  539.78   17.47  496.26   16.75  522.82   17.19
  499.08   16.80  502.47   16.85  493.43   16.70  516.60   17.09  502.47   16.85
  493.43   16.70  493.99   16.71  506.99   16.93  492.30   16.68  500.21   16.81
  486.65   16.58  483.82   16.54  496.26   16.75  506.99   16.93  516.60   17.09
  477.60   16.43  508.69   16.96  509.82   16.98  506.99   16.93  496.26   16.75
  493.43   16.70  476.47   16.41  516.04   17.08  506.99   16.93  454.43   16.03
  496.26   16.75  504.17   16.88  490.04   16.64  461.21   16.15  485.52   16.57
  483.26   16.53  475.34   16.39  510.95   16.99  471.95   16.33  523.39   17.20
  474.78   16.38  484.95   16.56  491.17   16.66  490.60   16.65  471.39   16.32
  501.91   16.84  484.39   16.55  468.56   16.27  489.47   16.63  477.04   16.42
  475.34   16.39  483.82   16.54  482.13   16.51  489.47   16.63  481.56   16.50
  513.28   13.83  455.13   13.02  479.36   13.37  495.39   13.59  477.12   13.34
  480.10   13.38  461.47   13.12  454.38   13.01  486.26   16.43  495.70   16.59
  474.05   16.22  474.05   16.22  472.38   16.19  479.60   16.32  505.69   16.75
  471.83   16.18  477.38   16.28  474.05   16.22  487.37   16.45  487.93   16.46
  478.49   16.30  471.27   16.17  495.14   16.58  455.73   15.91  484.60   16.40
  461.28   16.00  481.82   16.35  441.85   15.66  487.37   16.45  471.27   16.17
  459.62   15.97  458.51   15.95  462.95   16.03  485.15   16.41  458.51   15.95
  479.05   16.31  509.02   16.81  476.82   16.27  470.16   16.16  449.63   15.80
  460.17   15.98  465.17   16.07  484.60   16.40  471.83   16.18  449.63   15.80
  457.40   15.93  486.82   16.44  441.85   15.66  465.17   16.07  445.74   15.73
  460.17   15.98  464.06   16.05  468.50   16.13  438.52   15.60  484.60   16.40
  483.19   13.40  459.80   13.07  466.85   13.17  470.94   13.23  460.17   13.07
  474.37   16.21  450.54   15.80  454.42   15.87  453.87   15.86  478.80   16.29
  451.09   15.81  441.67   15.64  459.41   15.96  487.12   16.43  442.78   15.66
  463.29   16.02  467.17   16.09  468.83   16.12  457.74   15.93  460.52   15.98
  476.03   16.24  435.58   15.54  437.24   15.57  456.08   15.90  488.78   16.46
  464.39   16.04  464.39   16.04  435.58   15.54  436.13   15.55  464.95   16.05
  462.18   16.00  454.97   15.88  440.57   15.63  473.26   16.19  462.73   16.01
  420.06   15.26  447.77   15.75  446.11   15.72  472.71   16.19  463.84   16.03
  487.67   16.44  445.00   15.70  480.47   16.32  451.65   15.82  436.69   15.56
  457.74   15.93  437.79   15.58  458.30   15.94  465.50   16.06  440.01   15.62
  449.99   15.79  441.12   15.64  452.76   15.84  437.24   15.57  466.61   16.08
  465.02   13.11  448.02   12.87  432.86   12.65  447.61   15.81  439.24   15.66
  463.79   16.09  457.10   15.97  457.65   15.98  438.68   15.65  443.70   15.74
  438.12   15.64  442.58   15.72  449.84   15.84  452.07   15.88  455.42   15.94
  440.35   15.68  457.65   15.98  494.49   16.61  457.65   15.98  487.23   16.49
  540.81   17.37  461.56   16.05  510.67   16.88  510.67   16.88  491.70   16.57
  524.63   17.11  601.65   18.32  570.39   17.84  642.95   18.94  703.22   19.81
  735.04   20.25  841.64   21.67  948.23   23.00 1211.66   26.00 1378.54   27.74
 1672.11   30.55 1915.45   32.70 2119.72   34.40 2241.38   35.37 2188.36   34.95
 1903.73   32.60 1571.65   29.62 1149.71   25.33  946.56   22.98  679.22   19.47
  511.79   16.90  462.68   16.07  435.33   15.59  490.58   16.55  426.96   15.44
  445.93   15.78  470.49   16.20  430.31   15.50  446.49   15.79  431.20   12.90
  432.75   12.92  448.17   13.15  456.66   13.27  456.59   16.38  435.43   16.00
  451.30   16.28  455.41   16.36  448.95   16.24  455.41   16.36  456.00   16.37
  484.21   16.87  475.98   16.72  516.53   17.42  540.62   17.82  587.04   18.57
  608.20   18.90  673.42   19.89  731.60   20.73  837.37   22.18 1016.60   24.44
 1175.26   26.28 1518.44   29.87 1841.63   32.90 2006.76   34.34 2255.33   36.40
 2229.47   36.20 2087.26   35.02 1781.11   32.35 1365.65   28.33 1042.46   24.75
  765.09   21.20  599.97   18.78  478.33   16.77  472.45   16.66  444.25   16.16
  453.65   16.33  463.05   16.50  441.90   16.11  434.85   15.99  445.42   16.18
  456.00   16.37  444.25   16.16  432.50   15.94  437.78   16.04  440.14   16.08
  436.02   16.01  440.72   16.09  431.32   15.92  443.07   16.14  438.96   16.06
  441.31   16.10  457.18   16.39  431.62   13.09  460.18   13.51  443.12   13.26
  432.81   13.10  432.41   13.10  444.71   13.28  444.44   16.56  450.62   16.68
  485.19   17.31  448.15   16.63  427.16   16.24  419.75   16.10  433.95   16.37
  444.44   16.56  421.60   16.13  464.20   16.93  445.68   16.59  474.07   17.11
  458.64   16.83  474.69   17.12  519.75   17.91  540.12   18.26  590.74   19.10
  621.60   19.59  658.64   20.16  770.99   21.82  859.26   23.03  891.36   23.46
  912.35   23.73  886.42   23.39  790.12   22.08  687.04   20.59  605.56   19.33
  557.41   18.55  455.56   16.77  448.77   16.64  462.35   16.89  453.09   16.72
  458.02   16.81  433.95   16.37  447.53   16.62  427.78   16.25  432.72   16.34
  411.11   15.93  425.93   16.21  441.98   16.52  427.16   16.24  450.62   16.68
  430.86   16.31  419.75   16.10  445.06   16.57  448.77   16.64  420.99   16.12
  457.41   16.80  445.57   13.74  434.99   13.57  436.68   13.60  429.48   13.49
  459.97   13.96  443.46   13.70  448.72   16.96  435.26   16.70  439.10   16.78
  443.59   16.86  401.28   16.04  433.97   16.68  430.13   16.60  440.38   16.80
  428.21   16.57  432.05   16.64  456.41   17.10  443.59   16.86  442.31   16.84
  437.18   16.74  420.51   16.42  425.64   16.52  446.15   16.91  426.28   16.53
  430.77   16.62  421.15   16.43  428.85   16.58  484.62   17.63  437.82   16.75
  443.59   16.86  444.23   16.87  438.46   16.76  435.26   16.70  430.13   16.60
  422.44   16.46  414.74   16.31  435.26   16.70  418.59   16.38  437.18   16.74
  446.15   16.91  419.87   16.41  426.28   16.53  403.21   16.08  439.74   16.79
  435.26   16.70  425.00   16.51  422.44   16.46  409.62   16.20  465.38   17.27
  449.36   16.97  426.92   16.54  450.64   17.00  435.90   16.72  448.72   16.96
  438.46   16.76  431.65   13.35  428.76   13.30  435.37   13.40  440.73   13.49
  405.17   15.89  410.16   15.99  412.65   16.04  436.34   16.49  430.73   16.39
  412.65   16.04  420.76   16.19  432.60   16.42  390.21   15.60  414.52   16.07
  426.99   16.31  436.34   16.49  408.29   15.95  423.25   16.24  420.13   16.18
  429.48   16.36  426.37   16.30  418.89   16.16  415.77   16.10  405.80   15.90
  438.21   16.53  440.70   16.57  419.51   16.17  428.24   16.34  436.96   16.50
  409.54   15.98  422.63   16.23  433.22   16.43  418.89   16.16  417.64   16.13
  404.55   15.88  402.68   15.84  425.12   16.28  418.26   16.15  415.15   16.09
  427.61   16.33  402.06   15.83  414.52   16.07  413.28   16.05  426.99   16.31
  393.95   15.67  430.73   16.39  407.67   15.94  422.00   16.22  423.25   16.24
  418.89   16.16  428.86   16.35  394.58   15.68  455.04   16.84  383.27   12.46
  430.26   13.20  416.49   12.99  404.74   12.81  415.68   12.98  420.90   15.61
  444.06   16.03  411.06   15.43  421.48   15.62  427.85   15.74  415.11   15.50
  427.27   15.73  426.11   15.71  410.48   15.42  422.64   15.64  396.01   15.14
  415.69   15.51  390.79   15.04  416.27   15.52  433.64   15.84  402.95   15.27
  431.32   15.80  418.58   15.57  397.74   15.17  407.58   15.36  405.85   15.33
  448.69   16.12  417.43   15.55  423.22   15.65  421.48   15.62  440.01   15.96
  376.90   14.77  403.53   15.28  403.53   15.28  412.22   15.45  423.22   15.65
  397.16   15.16  418.58   15.57  419.74   15.59  411.64   15.44  416.27   15.52
  440.01   15.96  415.69   15.51  420.32   15.60  424.95   15.69  405.27   15.32
  432.48   15.82  427.27   15.73  427.85   15.74  418.58   15.57  384.43   14.92
  413.37   15.47  431.32   15.80  402.37   15.26  404.69   15.31  412.45   12.69
  394.50   12.41  417.91   12.77  406.20   12.59  385.91   12.27  421.30   15.74
  394.23   15.23  426.01   15.83  397.18   15.29  396.59   15.28  430.13   15.91
  419.54   15.71  427.18   15.85  378.93   14.93  419.54   15.71  414.24   15.61
  382.47   15.00  401.88   15.38  412.47   15.58  426.01   15.83  394.23   15.23
  424.24   15.80  407.77   15.49  431.30   15.93  414.83   15.62  400.12   15.34
  400.12   15.34  398.94   15.32  398.94   15.32  406.59   15.47  423.07   15.78
  449.54   16.26  486.61   16.92  512.50   17.37  580.17   18.48  663.72   19.76
  821.42   21.98  985.00   24.07 1154.46   26.06 1329.80   27.97 1329.21   27.97
 1339.81   28.08 1100.32   25.44  947.34   23.61  763.17   21.19  587.23   18.59
  510.74   17.34  443.07   16.15  431.30   15.93  414.83   15.62  438.95   16.07
  446.60   16.21  418.36   15.69  423.08   12.82  444.44   13.14  392.77   12.35
  424.24   12.84  412.20   12.65  428.65   15.83  405.26   15.39  432.16   15.90
  405.85   15.41  411.70   15.52  402.34   15.34  388.89   15.08  406.43   15.42
  460.82   16.42  423.39   15.74  414.62   15.57  414.62   15.57  425.15   15.77
  434.50   15.94  402.34   15.34  448.54   16.20  416.37   15.60  419.30   15.66
  397.08   15.24  444.44   16.12  395.32   15.20  370.76   14.72  438.60   16.02
  402.34   15.34  423.39   15.74  414.62   15.57  397.66   15.25  404.68   15.38
  402.34   15.34  408.77   15.46  387.72   15.06  435.09   15.95  400.58   15.31
  403.51   15.36  416.37   15.60  435.67   15.96  449.12   16.21  489.47   16.92
  491.23   16.95  550.29   17.94  539.77   17.77  640.94   19.36  680.12   19.94
  731.58   20.68  795.91   21.57  873.68   22.60 1042.11   24.69 1287.72   27.44
 1601.75   30.61 1832.50   26.76 2208.93   29.38 2281.25   29.86 2279.68   29.85
 2014.27   28.06 1620.25   25.17 1263.10   27.08  921.78   23.13  698.88   20.14
  545.64   17.80  458.57   16.32  442.90   16.03  420.84   15.63  440.57   15.99
  459.15   16.33  419.68   15.61  437.09   15.93  434.19   15.88  433.61   15.86
  439.41   15.97  419.10   15.60  455.67   16.26  410.39   15.43  463.21   16.40
  456.83   16.28  507.91   17.17  541.00   17.72  687.27   19.97  885.21   22.67
 1323.47   27.72 1950.37   33.65 3103.18   42.44 5018.14   53.97 7343.49   65.29
10365.40   77.5713189.38   87.5015212.31   93.9715774.78   95.6914341.02   91.24
11361.49   81.21 8035.99   68.30 5025.69   54.01 2885.50   40.93 1487.16   29.38
  839.36   22.07  528.23   17.51  527.06   17.49  465.53   16.44  477.14   16.64
  457.99   16.30  526.48   17.48  546.22   17.81  595.56   18.59  720.14   17.24
  936.10   19.66 1228.04   22.52 1553.01   25.32 1871.79   27.80 2079.08   29.30
 2124.41   37.05 1870.42   34.77 1640.33   32.56 1268.70   28.64  910.65   24.26
  695.43   21.20  556.47   18.96  488.61   17.77  469.22   17.41  479.56   17.61
  442.72   16.92  411.70   16.31  429.79   16.67  405.24   16.18  423.98   16.55
  407.82   16.24  373.57   15.54  411.05   16.30  393.60   15.95  402.65   16.13
  436.26   16.79  434.32   16.75  437.55   16.82  487.32   17.75  486.02   17.72
  539.67   18.68  536.44   18.62  570.04   19.19  564.23   19.10  594.60   19.60
  575.21   19.28  529.97   18.51  584.26   19.43  477.62   17.57  493.13   17.85
  450.48   17.06  427.86   16.63  419.45   16.47  394.89   15.98  396.19   16.00
  414.28   16.36  414.93   16.38  424.62   16.57  381.32   15.70  376.15   15.59
  435.61   16.78  407.82   16.24  416.22   16.40  400.71   16.09  418.19   13.24
  406.87   13.06  383.41   12.68  388.43   12.76  405.20   13.03  378.35   15.68
  388.10   15.88  396.55   16.06  409.56   16.32  393.30   15.99  418.66   16.50
  412.16   16.37  397.85   16.08  383.55   15.79  416.06   16.45  373.15   15.58
  397.85   16.08  399.15   16.11  390.05   15.92  386.80   15.86  399.80   16.12
  396.55   16.06  416.06   16.45  396.55   16.06  377.70   15.67  390.05   15.92
  418.01   16.48  390.05   15.92  427.76   16.68  410.86   16.34  405.66   16.24
  377.05   15.66  399.80   16.12  398.50   16.10  395.90   16.04  398.50   16.10
  407.61   16.28  362.75   15.36  375.75   15.63  356.25   15.22  385.50   15.83
  380.95   15.74  388.75   15.90  392.00   15.96  374.45   15.60  378.35   15.68
  395.25   16.03  413.46   16.39  415.41   16.43  406.31   16.25  369.25   15.49
  403.06   16.19  399.15   16.11  392.65   15.98  387.06   12.86  393.46   12.97
  374.67   12.65  383.21   12.80  390.44   15.42  380.69   15.23  408.71   15.78
  379.47   15.20  404.45   15.70  380.08   15.22  374.60   15.11  394.09   15.49
  377.65   15.17  390.44   15.42  379.47   15.20  403.23   15.67  367.90   14.97
  401.40   15.64  397.14   15.55  408.10   15.77  383.74   15.29  409.93   15.80
  414.19   15.88  394.09   15.49  377.65   15.17  354.50   14.69  372.77   15.07
  386.17   15.34  396.53   15.54  375.21   15.12  393.48   15.48  402.62   15.66
  388.61   15.39  362.42   14.86  384.96   15.31  406.88   15.74  397.75   15.57
  419.07   15.98  411.76   15.84  487.89   17.24  488.50   17.25  566.47   18.58
  656.62   20.00  756.51   21.47  785.75   21.88  826.56   22.44  859.45   22.88
  712.65   20.83  674.89   20.28  582.31   18.83  501.90   17.48  454.39   16.64
  414.80   15.90  402.01   15.65  371.64   12.19  386.44   12.43  393.24   12.54
  369.24   12.15  380.84   12.34  381.21   15.15  375.19   15.03  384.22   15.21
  408.31   15.68  431.20   16.11  464.92   16.73  507.68   17.49  641.98   19.66
  811.20   22.10 1116.53   25.93 1446.55   29.52 1761.52   32.57 2186.69   36.29
 2290.27   37.14 2271.00   36.98 1952.42   34.29 1579.04   30.84 1163.50   26.47
  839.51   22.48  644.38   19.70  508.28   17.50  439.63   16.27  390.24   15.33
  388.44   15.29  385.43   15.24  401.08   15.54  405.90   15.63  373.38   15.00
  370.97   14.95  413.73   15.78  391.45   15.35  363.14   14.79  352.30   14.57
  407.71   15.67  389.64   15.32  386.63   15.26  367.96   14.89  376.39   15.06
  384.22   15.21  378.20   15.09  382.41   15.18  390.24   15.33  382.41   15.18
  356.52   14.65  365.55   14.84  387.23   15.27  372.78   14.98  396.27   15.45
  387.83   15.28  372.28   12.35  382.12   12.52  381.30   12.50  398.11   12.78
  375.15   12.40  395.97   15.56  381.30   15.26  376.41   15.17  369.08   15.02
  386.80   15.37  375.19   15.14  417.97   15.98  399.02   15.61  422.24   16.06
  413.08   15.89  469.29   16.93  510.24   17.66  531.01   18.01  570.12   18.66
  642.84   19.82  767.49   21.66  983.20   24.51 1348.61   28.71 1821.57   33.36
 2498.01   39.07 3181.79   44.09 3800.18   48.19 3933.39   49.03 3800.18   48.19
 3274.67   44.73 2606.17   39.91 1872.90   33.83 1353.50   28.76  901.31   23.47
  662.39   20.12  501.68   17.51  437.52   16.35  400.86   15.65  397.19   15.58
  354.41   14.72  375.80   15.15  406.36   15.76  395.97   15.56  373.97   15.12
  389.25   15.42  394.13   15.52  381.30   15.26  370.30   15.04  390.47   15.45
  394.13   15.52  356.25   14.75  380.69   15.25  360.53   14.84  370.30   15.04
  378.37   12.46  383.71   12.55  357.85   12.12  390.68   12.66  379.60   12.48
  385.75   15.63  390.18   15.72  379.41   15.50  428.19   16.47  448.46   16.85
  484.56   17.52  567.54   18.96  676.48   20.70  905.15   23.94 1183.21   27.38
 1484.09   30.66 1722.88   33.03 1884.40   34.55 1750.12   33.29 1579.73   31.63
 1288.99   28.57 1056.53   25.87  800.00   22.51  612.51   19.70  441.49   16.72
  399.68   15.91  365.48   15.22  399.05   15.90  387.65   15.67  384.48   15.61
  366.11   15.23  390.82   15.73  357.88   15.06  384.48   15.61  398.42   15.89
  409.18   16.10  384.48   15.61  424.39   16.40  451.62   16.91  516.23   18.08
  521.30   18.17  537.77   18.46  552.34   18.70  560.57   18.84  497.23   17.75
  476.96   17.38  439.59   16.69  397.78   15.87  391.45   15.75  379.41   15.50
  374.35   15.40  379.41   15.50  364.21   15.19  369.91   15.31  376.01   12.75
  375.15   12.73  371.26   12.67  392.87   13.03  356.13   12.41  409.71   16.34
  397.33   16.09  372.58   15.58  374.53   15.62  368.67   15.50  388.21   15.90
  340.01   14.88  368.02   15.48  365.41   15.43  389.51   15.93  400.59   16.15
  391.47   15.97  381.70   15.77  413.61   16.41  389.51   15.93  384.30   15.82
  376.49   15.66  388.21   15.90  389.51   15.93  394.72   16.03  367.37   15.47
  379.09   15.71  374.53   15.62  386.26   15.86  381.05   15.75  359.55   15.30
  394.07   16.02  381.70   15.77  399.93   16.14  390.82   15.95  392.12   15.98
  393.42   16.01  358.90   15.29  435.11   16.83  434.46   16.82  441.62   16.96
  496.34   17.98  579.06   19.42  562.12   19.13  657.87   20.70  651.36   20.60
  614.88   20.01  567.99   19.23  518.48   18.38  474.84   17.59  437.06   16.87
  395.38   16.05  384.95   15.83  403.84   16.22  381.87   12.76  367.79   12.53
  378.88   12.71  376.32   12.67  379.73   12.73  374.47   15.58  371.23   15.51
  361.52   15.30  364.11   15.36  404.28   16.18  379.66   15.68  396.50   16.03
  367.99   15.44  377.07   15.63  401.04   16.12  377.07   15.63  382.25   15.74
  372.53   15.54  386.14   15.82  366.70   15.41  400.39   16.11  376.42   15.62
  386.78   15.83  382.90   15.75  386.14   15.82  412.05   16.34  403.63   16.17
  439.26   16.87  488.50   17.79  559.12   19.03  605.77   19.81  718.50   21.58
  726.92   21.70  747.65   22.01  793.00   22.67  741.82   21.92  679.62   20.98
  632.33   20.24  549.40   18.87  548.10   18.84  507.29   18.13  515.06   18.27
  484.61   17.72  485.91   17.74  448.33   17.04  450.28   17.08  415.29   16.40
  399.09   16.08  426.95   16.63  447.04   17.02  461.29   17.29  516.36   18.29
  601.88   19.75  708.13   21.42  811.25   18.39  876.67   19.11  969.17   20.10
 1072.92   21.14 1105.83   21.47 1260.66   27.52 1378.38   28.77 1843.84   33.28
 2379.58   37.80 3038.44   42.72 3508.71   45.91 3958.56   48.76 3896.10   48.37
 3523.12   46.00 2990.39   42.38 2346.55   37.54 1688.89   31.85 1248.65   27.39
  918.92   23.49  643.24   19.66  511.11   17.52  412.61   15.74  404.20   15.58
  393.39   15.37  378.38   15.07  371.17   14.93  395.20   15.41  366.37   14.83
  345.35   14.40  345.95   14.41  365.17   14.81  333.33   14.15  386.19   15.23
  365.17   14.81  396.40   15.43  370.57   14.92  372.97   14.97  347.75   14.45
  357.36   14.65  363.96   14.79  378.98   15.09  375.98   15.03  374.17   14.99
  400.60   15.51  421.62   15.91  494.89   17.24  535.14   17.93  642.04   19.64
  691.29   20.38  779.58   21.64  752.55   21.26  764.56   21.43  728.53   20.92
  632.64   16.01  565.82   15.14  486.03   14.03  453.62   13.55  419.60   13.04
  405.83   12.82  361.34   14.75  395.06   15.42  365.55   14.84  347.49   14.47
  375.19   15.03  394.46   15.41  370.97   14.95  361.94   14.76  375.19   15.03
  378.20   15.09  355.31   14.63  391.45   15.35  396.27   15.45  434.21   16.17
  424.57   15.99  479.37   16.99  559.47   18.36  683.53   20.29  832.28   22.39
 1071.97   25.41 1280.34   27.77 1508.58   30.14 1580.85   30.86 1570.61   30.75
 1403.19   29.07 1262.27   27.57 1058.72   25.25  847.34   22.59  697.98   20.50
  523.94   17.76  485.40   17.10  461.31   16.67  393.26   15.39  372.18   14.97
  387.23   15.27  381.21   15.15  369.17   14.91  367.36   14.87  341.46   14.34
  357.12   14.67  352.91   14.58  339.66   14.30  348.09   14.48  339.66   14.30
  381.81   15.16  328.82   14.07  336.65   14.24  372.78   14.98  359.27   12.09
  366.19   12.21  375.14   12.35  356.02   12.04  369.85   12.27  364.56   12.18
  392.19   15.65  429.04   16.37  430.29   16.39  409.06   15.98  447.15   16.71
  449.02   16.75  405.31   15.91  433.41   16.45  418.42   16.17  380.33   15.41
  405.93   15.92  390.94   15.63  365.34   15.10  360.97   15.01  369.09   15.18
  352.85   14.84  342.86   14.63  385.32   15.51  374.71   15.30  359.09   14.98
  361.59   15.03  349.10   14.77  346.60   14.71  384.07   15.49  344.73   14.67
  364.09   15.08  365.34   15.10  378.45   15.37  354.72   14.88  349.73   14.78
  353.47   14.86  369.71   15.20  374.08   15.28  339.11   14.55  367.21   15.14
  389.07   15.59  375.33   15.31  375.96   15.32  377.83   15.36  372.83   15.26
  411.55   16.03  397.19   15.75  404.68   15.90  432.16   16.43  505.23   17.76
  507.73   17.81  589.54   19.19  625.76   19.77  751.52   17.88  846.36   18.97
  984.58   20.46 1279.32   23.33 1649.76   26.49 2078.53   36.65 2573.60   40.78
 3206.33   45.52 3552.75   47.92 3678.14   48.76 3640.65   48.51 3260.62   45.91
 2721.60   41.94 2123.12   37.04 1689.45   33.04 1279.04   28.75  916.46   24.34
  745.19   21.95  575.86   19.29  486.02   17.72  423.98   16.55  404.59   16.17
  369.04   15.44  389.72   15.87  395.54   15.99  351.59   15.07  371.63   15.50
  369.04   15.44  381.32   15.70  358.05   15.21  367.10   15.40  329.62   14.60
  341.90   14.87  389.08   15.86  350.95   15.06  318.63   14.35  373.57   15.54
  361.29   15.28  349.65   15.03  372.27   15.51  339.31   14.81  382.61   15.73
  331.56   14.64  358.70   15.23  350.95   15.06  372.92   15.52  356.12   15.17
  352.24   15.09  353.53   15.12  363.87   15.34  369.04   15.44  386.49   15.80
  378.74   15.65  400.06   16.08  379.09   13.04  383.13   13.11  398.83   13.38
  387.62   13.19  441.45   14.07  440.02   17.53  454.69   17.82  476.34   18.24
  577.61   20.09  678.89   21.78  844.42   24.29  982.71   26.20 1313.78   30.29
 1565.92   33.07 1835.52   35.81 2008.73   37.46 1971.71   37.11 1901.17   36.44
 1718.18   34.64 1455.56   31.88 1225.07   29.25  971.54   26.05  875.15   24.72
  734.07   22.64  650.95   21.32  589.49   20.29  556.66   19.72  509.87   18.87
  467.26   18.07  425.35   17.24  427.45   17.28  416.27   17.05  370.18   16.08
  364.59   15.96  391.13   16.53  365.99   15.99  347.83   15.59  388.34   16.47
  392.53   16.56  378.56   16.26  364.59   15.96  365.99   15.99  405.80   16.84
  351.32   15.66  386.94   16.44  371.57   16.11  354.11   15.73  335.25   15.30
  400.21   16.72  414.18   17.01  397.42   16.66  396.72   16.65  379.95   16.29
  379.95   16.29  422.56   17.18  463.94   14.28  487.69   14.64  541.34   15.43
  590.59   16.12  667.98   20.94  782.15   22.65  963.91   25.15 1240.81   28.53
 1574.80   32.15 1908.14   35.38 2188.98   37.90 2522.31   40.68 2635.83   41.59
 2544.62   40.86 2327.43   39.08 1918.64   35.48 1599.08   32.39 1335.96   29.61
 1059.06   26.36  828.08   23.31  730.31   21.89  608.27   19.98  540.03   18.82
  565.62   19.26  574.80   19.42  628.61   20.31  728.35   21.86  951.44   24.99
 1149.61   27.47 1485.56   31.22 1925.20   35.54 2490.81   40.43 3005.25   44.41
 3467.19   47.70 3805.12   49.97 3733.60   49.50 3483.60   47.81 3194.88   45.79
 2628.61   41.53 2211.94   38.10 1789.37   34.27 1426.51   30.59 1267.72   28.84
 1114.83   27.05 1083.33   26.66 1064.30   26.43 1045.93   26.20 1072.18   26.52
 1038.71   26.11  979.00   25.35  909.45   24.43  810.37   23.06  784.78   22.69
  624.11   16.38  555.77   15.46  488.72   14.49  450.03   13.91  442.73   13.79
  415.26   15.89  411.61   15.82  406.75   15.73  407.36   15.74  420.73   15.99
  463.29   16.78  460.86   16.74  535.64   18.05  589.76   18.94  656.63   19.98
  764.25   21.56  804.38   22.11  857.27   22.83  847.55   22.70  769.11   21.62
  789.18   21.90  663.93   20.09  608.00   19.23  516.80   17.73  473.02   16.96
  460.86   16.74  408.57   15.76  418.91   15.96  395.20   15.50  390.94   15.42
  384.25   15.28  351.42   14.62  351.42   14.62  365.41   14.91  350.81   14.60
  353.85   14.67  363.58   14.87  364.19   14.88  358.72   14.77  353.85   14.67
  348.99   14.57  362.97   14.86  327.10   14.10  348.38   14.55  371.49   15.03
  346.56   14.52  353.25   14.66  336.22   14.30  335.61   14.28  370.88   15.02
  338.05   14.34  355.07   14.69  367.23   14.94  335.61   14.28  336.67   11.67
  362.16   12.11  350.83   11.91  367.83   12.20  362.97   12.12  363.78   12.13
  375.69   15.19  383.67   15.35  371.39   15.10  370.78   15.09  348.07   14.62
  351.75   14.69  337.02   14.38  364.03   14.95  379.99   15.27  370.78   15.09
  341.93   14.49  361.57   14.90  381.83   15.31  376.92   15.21  401.47   15.70
  427.87   16.21  431.55   16.28  451.20   16.64  481.28   17.19  502.76   17.57
  594.84   19.11  709.02   20.86  794.35   22.08  909.15   23.62  901.78   23.53
  986.49   24.61  954.57   24.21  897.48   23.47  827.50   22.54  758.75   21.58
  687.54   20.54  607.73   19.32  554.33   18.45  510.13   17.70  476.37   17.10
  457.95   16.77  417.43   16.01  414.98   15.96  453.65   16.69  486.80   17.29
  478.82   17.14  486.19   17.28  514.43   17.77  535.30   18.13  513.20   17.75
  519.95   17.87  485.57   17.27  440.15   16.44  415.59   15.97  436.39   13.25
  400.56   12.70  372.79   12.25  370.37   12.21  374.07   14.92  356.82   14.57
  351.47   14.46  321.14   13.82  346.12   14.35  359.80   14.63  336.01   14.14
  333.63   14.09  336.01   14.14  369.91   14.83  339.58   14.21  349.69   14.42
  349.69   14.42  372.88   14.89  340.77   14.24  352.66   14.48  330.06   14.01
  352.07   14.47  350.88   14.45  347.31   14.37  369.91   14.83  352.66   14.48
  314.01   13.67  356.23   14.56  338.98   14.20  338.39   14.19  315.19   13.69
  345.52   14.33  334.82   14.11  346.12   14.35  335.41   14.12  336.01   14.14
  346.12   14.35  341.96   14.26  337.20   14.16  345.52   14.33  346.71   14.36
  335.41   14.12  328.87   13.99  323.52   13.87  349.09   14.41  371.10   14.86
  377.64   14.99  355.04   14.53  375.26   14.94  358.61   14.60  385.96   15.15
  426.40   15.92  449.60   16.35  475.17   16.81  550.72   14.96  597.83   15.58
  639.25   16.11  709.92   16.98  788.02   21.95  859.54   22.92 1009.93   24.85
 1071.07   25.59 1231.24   27.44 1318.05   28.39 1437.87   29.65 1330.89   28.52
 1288.71   28.07 1231.24   27.44 1123.03   26.20  954.30   24.15  827.14   22.49
  683.48   20.44  613.17   19.36  570.99   18.68  466.45   16.89  438.94   16.38
  445.67   16.51  375.97   15.16  365.58   14.95  357.02   14.77  350.30   14.63
  333.18   14.27  333.79   14.28  369.25   15.02  353.97   14.71  368.64   15.01
  377.20   15.19  347.85   14.58  366.19   14.96  385.14   15.34  385.14   15.34
  388.81   15.42  391.26   15.47  453.61   16.65  459.73   16.76  490.91   17.32
  514.14   17.73  506.19   17.59  518.42   17.80  506.80   17.60  527.59   17.96
  541.65   18.20  542.26   18.21  495.80   17.41  459.12   16.75  448.72   16.56
  421.82   16.06  404.99   12.81  394.45   12.65  377.42   12.37  383.91   12.48
  366.47   12.19  403.36   12.79  392.74   15.61  403.91   15.83  452.92   16.76
  478.36   17.23  519.31   17.95  518.69   17.94  599.35   19.28  595.63   19.22
  616.72   19.56  620.44   19.62  641.54   19.95  617.34   19.57  593.76   19.19
  572.67   18.85  493.25   17.49  482.08   17.29  446.10   16.64  423.14   16.20
  409.49   15.94  399.57   15.75  382.81   15.41  346.83   14.67  372.89   15.21
  334.42   14.40  350.55   14.75  328.21   14.27  338.76   14.50  335.66   14.43
  355.51   14.85  355.51   14.85  353.03   14.80  370.40   15.16  330.08   14.31
  344.35   14.62  376.61   15.29  331.94   14.35  336.28   14.44  361.10   14.97
  362.34   14.99  385.92   15.47  363.58   15.02  375.99   15.27  383.43   15.42
  380.95   15.37  441.76   16.56  447.34   16.66  518.07   17.93  535.44   18.23
  563.58   15.20  604.16   15.74  642.69   16.23  736.14   17.37  742.29   17.44
  757.04   17.62  857.75   22.74  854.73   22.70  910.79   23.43  851.12   22.65
  870.40   22.91  810.13   22.10  719.11   20.82  691.38   20.41  673.90   20.15
  593.73   18.92  547.92   18.17  540.08   18.04  509.95   17.53  519.59   17.70
  502.11   17.40  546.11   18.14  566.61   18.48  617.24   19.29  685.96   20.33
  733.57   21.03  760.10   21.40  759.49   21.40  852.32   22.67  829.42   22.36
  806.51   22.05  779.99   21.68  708.26   20.66  649.19   19.78  596.75   18.97
  539.48   18.03  550.33   18.21  485.83   17.11  482.22   17.05  437.01   16.23
  433.39   16.16  429.17   16.08  429.17   16.08  461.12   16.67  474.98   16.92
  441.83   16.32  441.83   16.32  430.98   16.12  438.82   16.26  450.87   16.49
  457.50   16.61  470.77   16.85  481.01   17.03  491.19   13.95  517.73   14.32
  595.76   15.36  641.71   15.94  706.28   16.73  803.33   17.84  912.31   23.21
 1035.72   24.73 1225.27   26.90 1453.20   29.29 1616.77   30.90 1714.79   31.82
 1844.70   33.00 1842.34   32.98 1790.37   32.51 1651.61   31.23 1607.32   30.81
 1417.77   28.93 1287.27   27.57 1077.65   25.23  899.91   23.05  801.30   21.75
  691.47   20.21  625.92   19.23  552.11   18.06  445.82   16.23  436.96   16.06
  372.01   14.82  404.49   15.45  348.39   14.34  366.11   14.70  356.66   14.51
  353.11   14.44  340.12   14.17  349.57   14.37  351.93   14.42  350.16   14.38
  347.21   14.32  340.71   14.18  355.48   14.49  310.01   13.53  339.53   14.16
  337.17   14.11  368.47   14.75  333.63   14.04  346.03   14.29  337.76   14.12
  354.89   14.48  334.22   14.05  369.06   14.76  336.58   14.10  341.30   14.20
  347.80   14.33  353.71   14.45  347.21   14.32  335.40   11.50  353.53   11.80
  331.07   11.42  354.32   11.82  348.41   11.72  333.48   13.97  341.67   14.14
  325.29   13.80  335.82   14.02  334.06   13.98  338.16   14.07  343.43   14.17
  333.48   13.97  349.86   14.31  334.65   13.99  354.54   14.40  338.16   14.07
  318.85   13.66  318.27   13.65  362.73   14.57  349.28   14.29  363.90   14.59
  361.56   14.54  363.32   14.58  347.52   14.26  359.22   14.50  358.64   14.49
  382.04   14.95  422.99   15.73  430.60   15.87  438.79   16.02  454.59   16.31
  520.11   17.44  549.36   17.93  651.16   19.52  703.82   20.29  771.68   21.25
  898.64   22.93 1030.86   24.56 1216.32   26.68 1317.54   27.76 1499.49   29.62
 1561.50   30.23 1613.57   30.72 1711.86   31.65 1760.42   32.09 1685.53   31.40
 1562.09   30.23 1510.02   29.72 1342.69   28.03 1233.29   26.86 1072.40   25.05
  920.87   23.21  840.49   18.28  722.35   16.95  645.58   16.02  610.58   15.58
  590.29   15.32  587.20   18.87  545.34   18.19  548.38   18.24  619.35   19.38
  613.28   19.29  664.24   20.07  652.11   19.89  687.29   20.42  678.80   20.29
  684.87   20.38  641.80   19.73  653.93   19.92  593.87   18.98  601.76   19.11
  555.05   18.35  511.98   17.62  459.21   16.69  444.04   16.41  428.87   16.13
  402.18   15.62  380.35   15.19  382.17   15.23  359.11   14.76  367.61   14.93
  374.28   15.07  359.11   14.76  340.92   14.38  337.88   14.32  383.38   15.25
  343.95   14.44  320.90   13.95  345.77   14.48  331.82   14.19  346.98   14.51
  340.31   14.37  357.90   14.73  351.23   14.60  367.61   14.93  338.49   14.33
  377.92   15.14  392.48   15.43  405.22   15.68  410.68   15.78  454.96   16.61
  418.56   15.93  459.21   16.69  477.40   17.02  552.62   18.31  587.81   18.88
  645.44   19.79  711.92   16.92  849.07   18.48  960.08   19.65 1071.90   20.76
 1171.24   21.70 1295.59   28.09 1363.77   28.82 1396.65   29.16 1469.71   29.91
 1433.18   29.54 1361.95   28.80 1316.89   28.32 1230.44   27.37 1125.11   26.17
  983.26   24.47  835.31   22.55  763.47   21.56  683.71   20.40  622.22   19.46
  553.42   18.36  520.55   17.80  497.41   17.40  442.01   16.40  371.39   15.04
  356.16   14.73  373.82   15.09  342.77   14.45  365.30   14.91  362.25   14.85
  359.21   14.79  385.39   15.32  364.08   14.89  382.95   15.27  395.74   15.52
  403.65   15.68  403.04   15.66  424.96   16.09  457.23   16.68  447.49   16.51
  493.15   17.33  557.08   18.42  553.42   18.36  576.56   18.74  642.92   19.78
  634.40   19.65  695.28   20.57  677.63   20.31  689.19   20.48  655.10   19.97
  649.62   19.89  688.58   20.48  679.45   20.34  635.62   19.67  639.27   19.73
  636.94   15.89  632.58   15.83  706.30   16.73  751.09   17.25  824.09   21.90
  881.13   22.65  931.18   23.28 1034.77   24.54 1093.55   25.23 1173.29   26.13
 1214.03   26.58 1240.80   26.87 1253.60   27.01 1277.46   27.27 1205.88   26.49
 1184.93   26.26 1146.52   25.83 1065.62   24.90  995.20   24.07  903.24   22.93
  830.50   21.98  781.61   21.33  704.79   20.25  654.74   19.52  636.69   19.25
  565.11   18.14  545.90   17.82  497.60   17.02  442.89   16.05  445.22   16.10
  409.14   15.43  404.48   15.34  410.88   15.46  378.29   14.84  361.41   14.50
  346.28   14.20  359.67   14.47  343.37   14.14  342.21   14.11  358.50   14.44
  355.01   14.37  387.60   15.02  375.38   14.78  375.96   14.79  355.59   14.39
  348.03   14.23  350.94   14.29  398.08   15.22  407.97   15.41  426.01   15.75
  438.82   15.98  452.20   16.22  462.10   16.40  490.62   16.90  511.96   14.29
  575.76   15.15  588.52   15.32  572.97   15.11  600.88   15.48  551.41   18.17
  574.17   18.54  588.53   18.77  547.22   18.10  549.02   18.13  586.74   18.74
  537.05   17.93  513.70   17.54  534.65   17.89  495.73   17.23  551.41   18.17
  572.37   18.51  584.94   18.71  610.69   19.12  672.35   20.06  738.21   21.02
  753.18   21.24  863.94   22.74  919.02   23.46 1044.16   25.00 1140.55   26.13
 1361.47   28.55 1535.10   30.32 1803.32   32.86 1921.87   33.92 2223.02   36.48
 2479.87   38.53 2745.70   40.54 2736.12   40.47 2846.28   41.28 2885.20   41.56
 2818.74   41.08 2818.74   41.08 2646.91   39.81 2488.85   38.60 2345.76   37.48
 2033.23   34.89 1837.45   33.17 1609.34   31.04 1370.45   28.64 1160.31   26.36
 1057.93   25.17  902.26   23.24  830.41   22.30  708.88   20.60  645.41   19.66
  588.53   18.77  537.64   17.94  464.60   16.68  446.91   13.55  424.32   13.20
  409.53   12.97  402.96   12.87  393.92   12.72  414.41   16.33  380.95   15.66
  411.84   16.28  377.09   15.58  456.24   17.13  469.76   17.39  489.70   17.75
  483.91   17.65  490.35   17.76  507.72   18.08  563.06   19.04  567.57   19.11
  591.38   19.51  559.20   18.97  555.98   18.91  503.86   18.01  546.33   18.75
  552.12   18.85  542.47   18.68  512.23   18.16  532.18   18.51  494.85   17.84
  449.81   17.01  450.45   17.03  422.78   16.49  374.52   15.52  393.18   15.91
  376.45   15.56  377.09   15.58  355.86   15.13  384.17   15.72  399.61   16.04
  344.92   14.90  342.34   14.84  348.78   14.98  362.29   15.27  351.35   15.04
  353.28   15.08  378.38   15.60  386.10   15.76  379.67   15.63  376.45   15.56
  373.23   15.50  408.62   16.22  404.12   16.13  418.92   16.42  408.62   16.22
  428.57   16.61  463.10   13.86  493.37   14.30  502.07   14.43  539.80   14.96
  558.04   15.21  585.82   15.58  584.37   18.98  648.48   19.99  646.63   19.97
  655.88   20.11  655.88   20.11  668.82   20.30  639.85   19.86  686.70   20.57
  618.28   19.52  651.56   20.04  618.28   19.52  629.37   19.70  568.96   18.73
  560.33   18.59  556.02   18.51  552.94   18.46  572.04   18.78  574.51   18.82
  631.22   19.73  616.43   19.49  617.04   19.50  644.17   19.93  700.26   20.78
  779.16   21.92  876.56   23.25  866.08   23.11 1028.82   25.18 1150.25   26.63
 1234.09   27.58 1253.20   27.79 1438.13   29.77 1501.00   30.42 1623.05   31.63
 1691.48   32.29 1673.60   32.12 1627.99   31.68 1610.73   31.51 1682.85   32.21
 1587.92   31.29 1581.14   31.22 1486.82   30.27 1361.69   28.97 1243.33   27.68
 1177.38   26.94 1068.27   25.66  967.18   24.42  891.35   23.44  819.85   22.48
  720.60   21.08  689.39   16.65  688.59   16.64  618.60   15.77  610.16   15.67
  546.61   14.83  566.78   18.14  514.52   17.29  492.45   16.91  506.39   17.15
  519.74   17.37  491.87   16.90  528.46   17.52  509.29   17.20  513.94   17.28
  581.30   18.37  601.05   18.68  600.46   18.67  678.86   19.86  713.70   20.36
  783.97   21.34  857.14   22.31  875.15   22.54  860.63   22.36  959.93   23.61
  948.90   23.47  959.35   23.60  998.26   24.08  986.06   23.93  977.35   23.82
  969.22   23.72  954.70   23.55  898.37   22.84  898.95   22.85  805.46   21.63
  771.20   21.16  698.61   20.14  650.41   19.43  658.54   19.56  553.43   17.93
  554.59   17.95  526.13   17.48  470.96   16.54  481.42   16.72  468.64   16.50
  410.57   15.44  391.41   15.08  407.08   15.38  372.24   14.70  340.30   14.06
  368.18   14.62  376.31   14.78  357.14   14.40  352.50   14.31  369.34   14.65
  348.85   11.60  337.67   11.41  355.02   11.70  352.32   11.65  343.84   14.07
  356.52   14.33  335.21   13.89  385.89   14.91  388.19   14.95  390.50   15.00
  391.07   15.01  409.50   15.36  436.57   15.86  453.28   16.16  452.12   16.14
  441.18   15.94  482.65   16.67  497.05   16.92  531.61   17.50  543.70   17.70
  555.80   17.89  624.91   18.97  740.10   20.65  726.85   20.46  751.04   20.80
  846.65   22.08  909.43   22.89 1008.50   24.10 1011.38   24.14 1033.26   24.39
 1078.19   24.92 1131.17   25.52 1125.41   25.46 1137.51   25.60 1122.53   25.43
 1108.14   25.26 1044.78   24.53 1075.31   24.89  990.64   23.89  995.82   23.95
  916.92   22.98  843.20   22.04  747.59   20.75  690.57   19.94  660.04   19.50
  612.24   18.78  609.36   18.73  556.95   17.91  564.43   18.03  537.94   17.60
  544.85   17.71  513.75   17.20  499.35   16.96  471.23   13.83  480.97   13.97
  497.21   14.21  504.92   14.32  503.30   14.29  539.42   14.80  547.59   18.50
  571.34   18.90  659.48   20.30  662.60   20.35  748.87   21.64  789.50   22.22
  848.88   23.04  871.39   23.34  903.27   23.76  963.28   24.54 1005.78   25.07
 1016.41   25.21 1032.04   25.40 1032.04   25.40 1120.18   26.46 1094.55   26.16
 1113.92   26.39 1095.17   26.16 1086.42   26.06 1066.42   25.82 1028.91   25.36
 1007.66   25.10  975.78   24.70  941.40   24.26  903.27   23.76  851.38   23.07
  842.01   22.94  865.14   23.25  829.50   22.77  836.38   22.87  857.63   23.15
  878.26   23.43  922.64   24.02  960.15   24.50  948.27   24.35 1070.79   25.87
 1058.29   25.72 1121.43   26.48 1142.05   26.72 1234.57   27.78 1224.57   27.67
 1277.70   28.26 1290.83   28.41 1297.70   28.48 1237.69   27.82 1244.57   27.89
 1205.81   27.45 1202.69   27.42 1115.17   26.40 1166.43   27.00 1097.67   26.19
 1034.54   25.43  911.39   23.87  875.14   23.39  778.01   32.70  757.39   32.27
  740.89   31.91  710.65   31.25  560.82   27.76  553.95   27.59  562.20   27.80
  454.98   25.01  496.22   26.12  419.24   24.01  450.86   24.89  427.49   24.24
  390.38   23.16  358.76   22.21  372.51   22.63  369.76   22.54  405.50   23.61
  375.26   22.71  349.14   21.91  393.13   23.25  384.88   23.00  416.49   23.93
  391.75   23.21  423.37   24.12  411.00   23.77  438.49   24.55  437.11   24.51
  460.48   25.16  467.35   25.35  505.84   26.37  485.22   25.83  482.47   25.75
  498.97   26.19  482.47   25.75  512.71   26.55  537.46   27.18  529.21   26.97
  622.68   29.26  577.32   28.17  563.57   27.83  544.33   27.35  533.33   27.08
  549.83   27.49  548.45   27.46  475.60   25.57  560.82   27.76  498.97   26.19
  492.10   26.01  530.58   27.01  461.86   25.20  475.60   25.57  494.85   26.08
  472.85   25.49                                                                