                                                                                
BANK 1 2431 487 CONST  602.500    5.000 0 0 ESD                                 
  541.28   24.78  515.18   24.18  563.97   25.30  571.91   25.48  527.66   24.47
  560.57   25.22  548.09   24.94  531.06   24.55  536.74   24.68  524.26   24.39
  539.01   24.73  539.01   24.73  551.49   25.02  504.96   23.94  587.80   25.83
  551.49   25.02  553.76   25.07  575.32   25.55  521.99   24.34  556.03   25.12
  540.14   24.76  602.55   26.15  580.99   25.68  600.28   26.10  617.30   26.47
  570.78   25.45  554.89   25.09  554.89   25.09  594.61   25.98  600.28   26.10
  573.05   25.50  563.97   25.30  646.81   27.09  624.11   26.61  591.21   25.90
  596.88   26.03  647.94   27.12  561.70   25.25  605.96   26.22  595.74   26.00
  662.70   27.42  632.06   26.78  602.55   26.15  610.50   26.32  663.83   27.45
  672.91   27.63  634.33   26.83  662.70   27.42  670.64   27.59  616.17   26.44
  721.70   28.62  646.81   27.09  692.38   19.78  699.17   19.88  767.56   20.83
  783.38   21.04  804.30   21.32  877.21   22.27  950.12   23.17  913.38   22.72
  950.12   23.17 1006.64   23.85  946.73   23.13  899.25   22.54  841.03   21.80
  794.12   21.19  682.21   19.64  613.82   18.63  617.21   18.68  620.04   18.72
  545.99   17.57  555.60   17.72  546.56   17.58  539.21   17.46  575.39   18.03
  552.78   17.68  555.04   17.71  539.78   17.47  546.56   17.58  535.26   17.39
  547.69   17.59  534.12   17.38  514.34   17.05  493.43   16.70  539.21   17.46
  540.91   17.49  525.08   17.23  514.91   17.06  569.73   17.94  514.34   17.05
  514.34   17.05  502.47   16.85  493.99   16.71  540.34   17.48  499.65   16.80
  530.73   17.32  505.30   16.90  522.26   17.18  525.08   17.23  465.17   16.21
  508.69   16.96  532.99   17.36  498.52   16.79  492.86   16.69  493.99   16.71
  483.46   13.42  474.89   13.30  500.61   13.66  481.60   13.40  490.91   13.53
  461.47   13.12  482.71   13.41  477.50   13.34  472.94   16.20  500.14   16.66
  495.70   16.59  471.83   16.18  510.69   16.84  510.13   16.83  481.82   16.35
  474.60   16.23  489.04   16.48  484.04   16.39  490.15   16.49  471.27   16.17
  470.16   16.16  487.93   16.46  493.48   16.55  423.54   15.33  472.94   16.20
  486.26   16.43  470.16   16.16  466.83   16.10  485.71   16.42  475.71   16.25
  457.40   15.93  445.74   15.73  425.20   15.36  450.74   15.82  470.16   16.16
  473.49   16.21  460.73   15.99  457.95   15.94  427.42   15.40  441.30   15.65
  501.25   16.68  454.62   15.89  452.40   15.85  469.61   16.15  461.28   16.00
  434.08   15.52  461.84   16.01  435.19   15.54  454.62   15.89  460.73   15.99
  429.09   15.43  459.06   15.96  450.18   15.81  447.40   15.76  481.82   16.35
  443.45   12.83  427.11   12.59  431.94   12.67  469.08   13.20  458.68   13.05
  461.07   15.98  499.31   16.63  428.93   15.42  433.36   15.50  438.90   15.60
  452.76   15.84  432.25   15.48  446.11   15.72  445.00   15.70  458.30   15.94
  438.90   15.60  459.96   15.97  466.61   16.08  447.77   15.75  438.35   15.59
  427.82   15.40  440.57   15.63  459.41   15.96  447.77   15.75  436.13   15.55
  453.31   15.85  430.59   15.45  446.66   15.73  449.43   15.78  438.90   15.60
  449.43   15.78  475.48   16.23  435.58   15.54  392.35   14.75  443.34   15.67
  440.01   15.62  423.39   15.32  428.93   15.42  455.53   15.89  433.92   15.51
  433.36   15.50  425.60   15.36  430.59   15.45  433.36   15.50  448.32   15.76
  430.04   15.44  438.90   15.60  427.27   15.39  435.02   15.53  430.04   15.44
  400.11   14.89  442.78   15.66  396.23   14.82  453.31   15.85  401.22   14.91
  433.60   12.66  451.34   12.92  430.27   12.61  444.26   15.75  434.21   15.57
  423.05   15.37  423.05   15.37  426.96   15.44  431.98   15.53  438.12   15.64
  424.17   15.39  412.45   15.17  434.21   15.57  430.86   15.51  463.79   16.09
  440.35   15.68  463.79   16.09  452.63   15.89  464.91   16.11  458.77   16.00
  469.37   16.19  479.98   16.37  477.19   16.32  483.33   16.42  530.77   17.21
  511.23   16.89  559.23   17.67  621.74   18.63  621.18   18.62  655.78   19.13
  727.22   20.15  855.59   21.85  976.14   23.34 1091.67   24.68 1331.10   27.26
 1676.57   30.59 1930.51   32.82 2112.46   34.34 2195.62   35.01 2236.36   35.33
 1917.68   32.72 1530.91   29.23 1274.73   26.67  866.75   21.99  644.06   18.96
  558.11   17.65  464.35   16.10  455.42   15.94  438.12   15.64  443.14   15.73
  454.86   15.93  436.44   15.61  417.47   15.26  464.91   16.11  443.54   13.08
  460.51   13.33  447.79   13.14  454.73   13.24  414.28   15.60  463.05   16.50
  441.31   16.10  453.06   16.32  467.75   16.58  440.72   16.09  455.41   16.36
  494.20   17.04  537.09   17.77  519.47   17.47  522.40   17.52  558.25   18.11
  599.38   18.77  671.66   19.87  714.56   20.49  815.63   21.89  950.20   23.63
 1108.86   25.53 1465.55   29.35 1675.92   31.38 1974.44   34.06 2203.03   35.98
 2206.55   36.01 2110.18   35.21 1816.95   32.68 1415.01   28.84 1045.39   24.79
  776.85   21.37  561.19   18.16  492.43   17.01  451.89   16.30  458.35   16.41
  414.28   15.60  437.78   16.04  464.23   16.52  413.10   15.58  423.68   15.78
  408.40   15.49  423.09   15.77  430.15   15.90  400.76   15.35  430.73   15.91
  407.82   15.48  448.95   16.24  422.51   15.76  417.22   15.66  378.43   14.91
  421.33   15.73  423.68   15.78  410.20   12.76  443.52   13.26  445.50   13.29
  423.29   12.96  426.86   13.01  426.46   13.01  443.21   16.54  429.63   16.29
  437.04   16.42  440.12   16.48  429.63   16.29  441.36   16.51  448.15   16.63
  420.99   16.12  461.11   16.87  458.64   16.83  419.75   16.10  439.51   16.47
  437.04   16.42  459.88   16.85  498.15   17.54  525.93   18.02  547.53   18.38
  612.96   19.45  678.40   20.46  766.05   21.75  816.67   22.45  892.59   23.47
  895.68   23.51  883.95   23.36  819.14   22.49  677.16   20.45  598.77   19.23
  490.74   17.40  456.17   16.78  432.72   16.34  414.20   15.99  432.10   16.33
  419.75   16.10  454.32   16.75  414.81   16.00  444.44   16.56  426.54   16.23
  429.63   16.29  414.81   16.00  441.36   16.51  435.19   16.39  442.59   16.53
  448.77   16.64  432.72   16.34  450.00   16.67  428.40   16.26  440.12   16.48
  456.17   16.78  447.27   13.76  419.31   13.33  442.61   13.69  438.80   13.63
  439.64   13.65  429.06   13.48  457.05   17.12  457.05   17.12  504.49   17.98
  478.21   17.51  504.49   17.98  464.74   17.26  480.77   17.56  506.41   18.02
  496.15   17.83  471.15   17.38  466.03   17.28  445.51   16.90  450.64   17.00
  403.21   16.08  401.28   16.04  428.85   16.58  429.49   16.59  437.82   16.75
  455.13   17.08  424.36   16.49  407.69   16.17  407.05   16.15  437.18   16.74
  428.21   16.57  417.31   16.36  487.82   17.68  413.46   16.28  459.62   17.16
  442.95   16.85  430.77   16.62  401.92   16.05  447.44   16.94  426.92   16.54
  423.08   16.47  412.18   16.25  426.28   16.53  415.38   16.32  429.49   16.59
  416.67   16.34  425.64   16.52  405.77   16.13  361.54   15.22  409.62   16.20
  370.51   15.41  434.62   16.69  401.92   16.05  421.15   16.43  413.46   16.28
  405.13   16.12  457.24   13.74  424.64   13.24  408.95   12.99  421.33   13.19
  421.38   16.21  411.41   16.01  429.48   16.36  398.32   15.76  409.54   15.98
  410.16   15.99  406.42   15.92  398.94   15.77  426.37   16.30  411.41   16.01
  435.72   16.48  461.27   16.96  431.35   16.40  448.18   16.71  426.37   16.30
  440.08   16.56  429.48   16.36  435.72   16.48  420.76   16.19  412.65   16.04
  414.52   16.07  445.07   16.66  425.12   16.28  388.97   15.57  403.30   15.86
  435.72   16.48  429.48   16.36  410.16   15.99  422.63   16.23  409.54   15.98
  412.65   16.04  407.67   15.94  417.64   16.13  398.32   15.76  407.67   15.94
  390.21   15.60  394.58   15.68  387.10   15.53  395.20   15.70  398.32   15.76
  404.55   15.88  416.39   16.11  402.06   15.83  430.73   16.39  416.39   16.11
  411.41   16.01  411.41   16.01  397.69   15.74  407.67   15.94  390.15   12.57
  423.38   13.10  417.70   13.01  414.06   12.95  404.74   12.81  420.90   15.61
  405.85   15.33  392.53   15.08  392.53   15.08  413.95   15.48  430.16   15.78
  382.11   14.87  393.69   15.10  372.85   14.69  412.22   15.45  391.37   15.05
  405.27   15.32  420.32   15.60  408.74   15.38  407.58   15.36  422.64   15.64
  394.85   15.12  431.32   15.80  390.79   15.04  430.74   15.79  417.43   15.55
  416.27   15.52  407.01   15.35  392.53   15.08  426.11   15.71  405.27   15.32
  414.53   15.49  412.22   15.45  401.22   15.24  415.69   15.51  427.85   15.74
  398.32   15.19  394.27   15.11  417.43   15.55  437.11   15.91  413.37   15.47
  400.64   15.23  420.90   15.61  419.74   15.59  422.64   15.64  391.37   15.05
  402.95   15.27  401.22   15.24  403.53   15.28  388.48   15.00  400.64   15.23
  420.32   15.60  380.95   14.85  396.58   15.15  402.37   15.26  420.64   12.81
  420.64   12.81  396.06   12.43  414.40   12.72  388.65   12.31  398.35   15.31
  430.71   15.92  390.70   15.16  421.30   15.74  398.35   15.31  401.29   15.37
  423.65   15.79  404.24   15.42  404.82   15.43  421.30   15.74  404.24   15.42
  419.54   15.71  436.60   16.03  397.76   15.30  405.41   15.45  420.12   15.72
  396.00   15.26  404.82   15.43  379.52   14.94  411.30   15.56  431.30   15.93
  430.13   15.91  400.12   15.34  425.42   15.82  423.65   15.79  448.96   16.25
  427.77   15.87  457.78   16.41  501.91   17.19  576.05   18.41  663.14   19.75
  835.54   22.17  963.81   23.81 1173.29   26.27 1236.25   26.97 1313.33   27.80
 1340.39   28.08 1149.16   26.00  962.05   23.79  766.11   21.23  579.58   18.47
  504.27   17.23  461.31   16.48  430.71   15.92  436.01   16.02  416.00   15.65
  446.60   16.21  391.88   15.19  417.25   12.73  418.41   12.75  375.68   12.08
  412.59   12.66  440.17   13.08  430.99   15.88  398.25   15.26  409.36   15.47
  410.53   15.49  432.16   15.90  430.41   15.87  421.64   15.70  480.12   16.76
  508.77   17.25  486.55   16.87  474.85   16.66  490.06   16.93  483.63   16.82
  473.10   16.63  430.99   15.88  405.85   15.41  450.29   16.23  436.26   15.97
  394.15   15.18  400.58   15.31  424.56   15.76  425.15   15.77  385.38   15.01
  397.08   15.24  412.28   15.53  407.02   15.43  414.04   15.56  387.13   15.05
  424.56   15.76  418.13   15.64  427.49   15.81  402.92   15.35  432.75   15.91
  419.30   15.66  392.98   15.16  432.75   15.91  459.06   16.38  447.37   16.17
  449.12   16.21  536.84   17.72  588.30   18.55  585.96   18.51  666.67   19.74
  728.07   20.63  761.99   21.11  855.56   22.37  987.13   24.03 1250.88   27.05
 1550.88   30.12 1863.38   26.99 2159.68   29.06 2351.22   30.32 2311.74   30.06
 2051.40   28.32 1695.30   25.74 1338.56   27.87  951.97   23.51  739.52   20.72
  577.56   18.31  506.75   17.15  442.90   16.03  452.76   16.21  430.13   15.80
  423.16   15.67  430.71   15.81  441.74   16.01  429.55   15.79  429.55   15.79
  421.42   15.64  425.48   15.72  426.64   15.74  442.32   16.02  434.77   15.89
  422.00   15.65  498.62   17.01  541.00   17.72  680.31   19.87  866.06   22.42
 1301.41   27.48 1931.21   33.48 2976.64   41.57 4741.26   52.46 7170.51   64.52
10299.23   77.3213161.52   87.4115185.60   93.8915652.30   95.3214467.57   91.64
11672.04   82.31 8338.41   69.57 5289.22   55.41 2980.12   41.59 1596.29   30.44
  894.50   22.79  610.07   18.82  520.68   17.38  542.16   17.74  496.30   16.97
  518.36   17.35  558.41   18.00  586.27   18.45  611.23   18.84  747.39   17.57
  931.56   19.61 1229.28   22.53 1525.76   25.10 1826.78   27.46 2060.08   29.17
 2071.42   36.59 1957.67   35.57 1645.50   32.61 1251.25   28.44  916.46   24.34
  716.76   21.52  544.84   18.77  509.29   18.14  445.31   16.96  460.82   17.26
  460.17   17.25  447.89   17.01  401.36   16.11  416.22   16.40  380.68   15.69
  389.72   15.87  422.04   16.52  445.95   16.98  391.02   15.90  412.34   16.32
  449.18   17.04  433.67   16.74  452.42   17.10  468.57   17.40  508.00   18.12
  542.90   18.73  504.77   18.06  542.25   18.72  523.51   18.39  545.48   18.78
  549.36   18.84  529.33   18.50  546.13   18.79  497.01   17.92  478.27   17.58
  436.26   16.79  425.92   16.59  430.44   16.68  402.65   16.13  416.22   16.40
  383.91   15.75  403.30   16.14  394.25   15.96  403.94   16.16  430.44   16.68
  416.22   16.40  413.64   16.35  415.58   16.39  392.96   15.94  406.03   13.04
  398.49   12.92  410.22   13.11  401.42   12.97  423.21   13.32  377.70   15.67
  406.31   16.25  400.46   16.13  440.76   16.93  414.76   16.42  392.00   15.96
  405.01   16.23  389.40   15.91  409.56   16.32  362.75   15.36  431.01   16.74
  399.80   16.12  412.16   16.37  386.80   15.86  407.61   16.28  380.30   15.72
  395.25   16.03  405.01   16.23  388.75   15.90  403.06   16.19  384.85   15.82
  386.15   15.84  392.65   15.98  362.10   15.34  364.05   15.38  407.61   16.28
  404.36   16.21  399.80   16.12  383.55   15.79  406.31   16.25  396.55   16.06
  406.96   16.27  388.10   15.88  401.76   16.16  411.51   16.36  405.66   16.24
  401.76   16.16  425.16   16.63  446.61   17.04  418.66   16.50  443.36   16.98
  406.96   16.27  393.95   16.00  421.91   16.56  423.86   16.60  362.10   15.34
  385.50   15.83  402.41   16.17  375.75   15.63  381.50   12.77  390.90   12.92
  396.03   13.01  405.85   13.17  395.92   15.53  363.64   14.88  392.26   15.46
  394.09   15.49  395.92   15.53  359.98   14.81  367.29   14.96  394.70   15.51
  398.36   15.58  395.92   15.53  351.45   14.63  388.00   15.37  404.45   15.70
  392.87   15.47  388.00   15.37  380.69   15.23  389.83   15.41  378.86   15.19
  372.16   15.06  364.85   14.91  377.04   15.15  363.03   14.87  384.96   15.31
  425.77   16.10  379.47   15.20  380.69   15.23  379.47   15.20  391.05   15.43
  403.84   15.68  368.51   14.98  367.90   14.97  364.85   14.91  380.08   15.22
  425.16   16.09  427.59   16.14  453.78   16.63  515.91   17.73  597.53   19.08
  680.98   20.37  746.16   21.32  810.11   22.21  852.75   22.79  799.76   22.07
  788.79   21.92  642.00   19.77  601.19   19.14  504.34   17.53  432.47   16.23
  392.26   15.46  361.20   14.83  396.04   12.59  377.24   12.28  382.84   12.38
  398.84   12.63  383.24   12.38  372.78   14.98  375.79   15.04  393.26   15.39
  370.97   14.95  407.11   15.66  460.10   16.65  489.01   17.16  608.85   19.15
  779.28   21.66 1041.25   25.04 1336.34   28.37 1729.00   32.27 2094.55   35.52
 2339.05   37.53 2312.56   37.32 1971.70   34.46 1636.86   31.40 1232.76   27.25
  936.46   23.75  688.35   20.36  529.36   17.85  448.66   16.44  361.94   14.76
  378.20   15.09  382.41   15.18  393.26   15.39  357.12   14.67  379.40   15.12
  392.65   15.38  378.20   15.09  374.59   15.02  376.99   15.07  379.40   15.12
  397.47   15.47  377.60   15.08  363.75   14.80  375.19   15.03  342.67   14.37
  371.57   14.96  375.19   15.03  363.14   14.79  387.23   15.27  368.56   14.90
  369.77   14.92  366.15   14.85  345.08   14.42  363.75   14.80  391.45   15.35
  387.23   15.27  371.05   12.33  395.24   12.73  355.47   12.07  368.59   12.29
  366.95   12.27  380.08   15.24  365.41   14.94  370.91   15.05  363.58   14.91
  363.58   14.91  372.14   15.08  369.08   15.02  394.13   15.52  405.13   15.73
  391.08   15.46  465.63   16.87  507.79   17.62  525.51   17.92  546.29   18.27
  628.78   19.60  697.22   20.64  956.92   24.18 1256.95   27.71 1745.19   32.66
 2406.36   38.35 3121.30   43.67 3693.25   47.51 4007.33   49.48 3913.84   48.90
 3379.77   45.44 2631.84   40.10 1963.95   34.64 1398.11   29.23  927.59   23.81
  655.67   20.02  531.01   18.01  426.52   16.14  413.08   15.89  369.08   15.02
  388.02   15.40  368.47   15.01  371.52   15.07  376.41   15.17  365.41   14.94
  339.75   14.41  375.80   15.15  369.69   15.03  370.91   15.05  399.02   15.61
  348.92   14.60  368.47   15.01  356.25   14.75  380.08   15.24  378.86   15.22
  380.01   12.49  369.34   12.31  363.19   12.21  383.30   12.54  386.17   12.59
  370.55   15.32  400.95   15.94  385.75   15.63  449.72   16.88  421.85   16.35
  492.79   17.67  561.20   18.85  691.05   20.92  879.81   23.61 1159.78   27.10
 1426.44   30.06 1725.42   33.06 1826.13   34.01 1791.92   33.69 1577.83   31.61
 1304.83   28.75 1029.93   25.54  736.66   21.60  606.81   19.61  513.70   18.04
  427.55   16.46  394.62   15.81  385.75   15.63  364.85   15.20  361.68   15.14
  409.82   16.11  366.75   15.24  387.02   15.66  397.78   15.87  403.48   15.99
  387.65   15.67  398.42   15.89  424.39   16.40  426.92   16.44  501.03   17.81
  524.47   18.23  546.63   18.61  549.17   18.65  536.50   18.43  488.36   17.59
  483.93   17.51  430.72   16.52  415.52   16.22  369.91   15.31  379.41   15.50
  362.31   15.15  388.92   15.70  352.18   14.94  371.81   15.35  356.56   12.41
  360.02   12.47  380.33   12.82  379.47   12.81  371.26   12.67  417.52   16.49
  375.18   15.63  395.38   16.05  401.89   16.18  390.82   15.95  399.93   16.14
  358.90   15.29  366.72   15.46  399.28   16.13  409.05   16.32  381.70   15.77
  359.55   15.30  371.28   15.55  396.03   16.06  353.69   15.18  373.88   15.61
  375.18   15.63  363.46   15.39  372.58   15.58  368.02   15.48  375.18   15.63
  387.56   15.89  386.26   15.86  353.04   15.16  384.95   15.83  360.20   15.32
  402.54   16.19  377.14   15.67  381.70   15.77  349.78   15.09  385.60   15.85
  378.44   15.70  394.07   16.02  410.36   16.35  439.67   16.92  462.47   17.36
  493.08   17.92  556.91   19.05  615.53   20.02  640.29   20.42  640.29   20.42
  586.88   19.55  577.76   19.40  495.03   17.96  447.48   17.07  454.65   17.21
  403.84   16.22  410.36   16.35  382.35   15.78  398.51   13.04  393.39   12.96
  369.49   12.56  387.84   12.86  390.40   12.91  380.30   15.70  380.95   15.71
  367.99   15.44  378.36   15.66  399.09   16.08  397.80   16.05  355.04   15.17
  380.95   15.71  372.53   15.54  390.67   15.91  362.16   15.32  398.45   16.07
  382.90   15.75  398.45   16.07  382.25   15.74  367.99   15.44  379.66   15.68
  366.05   15.40  391.32   15.92  386.78   15.83  394.56   15.99  410.75   16.31
  415.29   16.40  477.49   17.59  546.81   18.82  645.29   20.45  673.79   20.89
  774.21   22.40  800.13   22.77  811.79   22.93  741.82   21.92  652.41   20.56
  623.26   20.09  574.67   19.30  533.20   18.59  509.88   18.18  502.75   18.05
  477.49   17.59  481.37   17.66  444.44   16.97  469.71   17.44  428.90   16.67
  413.35   16.36  438.61   16.86  451.57   17.10  465.18   17.36  493.04   17.87
  592.16   19.59  658.89   20.66  795.00   18.20  907.08   19.44  991.25   20.32
 1061.25   21.03 1044.58   20.86 1193.39   26.77 1387.99   28.87 1697.90   31.93
 2249.25   36.75 2968.77   42.23 3487.09   45.76 3898.50   48.39 3901.50   48.41
 3618.02   46.62 3112.91   43.24 2403.00   37.99 1795.80   32.84 1316.52   28.12
  959.76   24.01  710.51   20.66  534.53   17.92  464.26   16.70  403.00   15.56
  372.37   14.95  394.59   15.39  365.17   14.81  384.38   15.19  376.58   15.04
  407.21   15.64  378.38   15.07  378.38   15.07  378.98   15.09  361.56   14.74
  346.55   14.43  357.36   14.65  355.56   14.61  358.56   14.67  366.37   14.83
  363.96   14.79  368.17   14.87  385.59   15.22  380.18   15.11  363.36   14.77
  418.02   15.84  439.04   16.24  449.85   16.44  555.56   18.27  659.46   19.90
  655.26   19.84  743.54   21.13  764.56   21.43  762.76   21.40  744.14   21.14
  643.99   16.15  569.06   15.18  511.54   14.39  453.62   13.55  428.92   13.18
  383.15   12.46  360.73   14.74  369.17   14.91  392.05   15.37  376.39   15.06
  348.69   14.49  376.99   15.07  354.71   14.62  358.33   14.69  360.73   14.74
  383.02   15.19  396.27   15.45  372.18   14.97  402.89   15.58  381.81   15.16
  448.66   16.44  458.90   16.62  545.02   18.12  663.05   19.98  818.43   22.20
 1008.73   24.65 1271.91   27.68 1502.56   30.08 1617.59   31.21 1596.51   31.01
 1464.62   29.70 1336.34   28.37 1040.65   25.03  867.21   22.85  696.18   20.48
  596.21   18.95  479.98   17.00  454.08   16.54  424.57   15.99  395.06   15.42
  406.50   15.65  360.13   14.73  346.88   14.45  342.07   14.35  361.34   14.75
  360.73   14.74  363.75   14.80  364.35   14.81  367.96   14.89  350.50   14.53
  340.26   14.31  356.52   14.65  336.04   14.23  358.93   14.70  354.80   12.01
  347.47   11.89  359.68   12.10  361.31   12.12  395.08   12.68  377.58   12.39
  369.09   15.18  409.68   16.00  406.56   15.93  445.28   16.68  427.17   16.33
  442.78   16.63  438.41   16.55  424.04   16.27  420.30   16.20  395.94   15.72
  374.71   15.30  355.97   14.91  364.09   15.08  343.48   14.65  382.20   15.45
  373.46   15.27  360.97   15.01  350.35   14.79  336.61   14.50  371.58   15.23
  348.48   14.75  370.96   15.22  345.98   14.70  369.09   15.18  359.72   14.99
  342.86   14.63  333.49   14.43  355.35   14.90  374.08   15.28  372.83   15.26
  356.60   14.92  339.73   14.57  376.58   15.34  367.84   15.16  342.86   14.63
  369.09   15.18  373.46   15.27  380.33   15.41  381.58   15.44  385.32   15.51
  377.21   15.35  381.58   15.44  394.69   15.70  434.66   16.48  452.15   16.80
  515.85   17.95  570.18   18.87  619.52   19.67  671.56   16.90  831.90   18.81
  949.28   20.09 1192.98   22.53 1585.11   25.96 1978.35   35.76 2469.54   39.95
 3013.73   44.13 3497.82   47.55 3760.22   49.30 3685.25   48.80 3322.02   46.34
 2901.92   43.31 2342.87   38.91 1761.19   33.74 1390.85   29.98 1001.13   25.44
  787.20   22.56  591.37   19.55  462.11   17.28  430.44   16.68  415.58   16.39
  384.55   15.77  374.86   15.57  381.97   15.71  378.09   15.63  380.68   15.69
  366.46   15.39  362.58   15.31  387.78   15.83  355.47   15.16  363.23   15.32
  383.91   15.75  373.57   15.54  364.52   15.35  358.05   15.21  335.43   14.72
  361.93   15.29  336.73   14.75  365.16   15.36  374.21   15.55  362.58   15.31
  343.19   14.89  336.08   14.74  329.62   14.60  339.96   14.82  355.47   15.16
  414.93   16.38  338.02   14.78  356.12   15.17  344.48   14.92  346.42   14.96
  378.09   15.63  360.64   15.27  376.40   12.99  364.74   12.79  368.33   12.85
  391.66   13.26  395.24   13.32  379.26   16.28  454.69   17.82  523.83   19.13
  554.57   19.68  636.98   21.09  805.31   23.72  983.41   26.21 1271.17   29.80
 1582.68   33.25 1790.12   35.36 1970.32   37.10 1976.60   37.16 2009.43   37.46
 1755.19   35.01 1541.47   32.81 1262.79   29.70 1074.91   27.40  935.22   25.56
  778.07   23.31  646.06   21.24  608.35   20.61  566.44   19.89  498.69   18.66
  475.64   18.23  435.83   17.45  404.40   16.81  384.84   16.39  396.72   16.65
  361.10   15.88  359.70   15.85  355.51   15.76  349.92   15.63  387.64   16.45
  356.91   15.79  358.30   15.82  393.23   16.57  392.53   16.56  375.07   16.19
  382.05   16.34  363.19   15.93  388.34   16.47  381.35   16.32  376.46   16.22
  383.45   16.37  398.11   16.68  398.81   16.69  348.52   15.60  409.29   16.91
  437.23   17.48  422.56   17.18  442.39   13.95  437.12   13.86  500.88   14.84
  551.89   15.58  662.07   20.84  731.63   21.91  923.88   24.62 1165.35   27.65
 1522.31   31.61 1833.99   34.69 2214.57   38.12 2452.76   40.12 2636.48   41.59
 2565.62   41.03 2414.70   39.81 2011.81   36.33 1741.47   33.80 1345.80   29.72
 1112.20   27.01  895.01   24.23  790.03   22.77  596.46   19.78  535.43   18.74
  523.62   18.54  547.24   18.95  638.45   20.47  726.38   21.83  831.36   23.36
 1135.17   27.29 1459.97   30.95 1863.52   34.97 2492.13   40.44 2990.16   44.29
 3517.72   48.04 3861.55   50.34 3870.08   50.39 3673.23   49.09 3189.63   45.75
 2770.34   42.64 2242.78   38.36 1760.50   33.99 1525.59   31.64 1269.69   28.86
 1095.80   26.81 1083.99   26.67 1040.68   26.13 1034.12   26.05 1043.96   26.17
 1046.59   26.21 1032.15   26.02  942.26   24.87  826.77   23.29  742.13   22.07
  635.29   16.52  548.46   15.35  496.02   14.60  477.11   14.32  432.84   13.64
  396.41   15.52  394.59   15.49  373.92   15.08  386.08   15.32  435.32   16.27
  431.68   16.20  460.25   16.73  530.78   17.96  547.20   18.24  657.24   19.99
  758.17   21.47  811.67   22.21  840.86   22.61  834.78   22.53  803.77   22.11
  796.47   22.01  691.90   20.51  617.72   19.38  541.72   18.15  497.34   17.39
  471.80   16.94  420.12   15.98  369.66   14.99  364.80   14.89  383.64   15.27
  356.89   14.73  390.94   15.42  364.80   14.89  367.23   14.94  335.61   14.28
  356.29   14.72  369.05   14.98  338.05   14.34  340.48   14.39  343.52   14.45
  363.58   14.87  353.85   14.67  328.32   14.13  355.07   14.69  351.42   14.62
  359.93   14.79  348.99   14.57  362.37   14.84  347.77   14.54  342.30   14.43
  354.46   14.68  357.50   14.74  357.50   14.74  358.72   14.77  346.38   11.84
  348.81   11.88  371.07   12.25  348.00   11.87  365.81   12.17  372.69   12.28
  344.38   14.54  364.64   14.96  349.91   14.66  367.71   15.02  372.01   15.11
  375.08   15.17  325.97   14.15  354.21   14.75  364.64   14.96  360.96   14.89
  348.07   14.62  364.64   14.96  357.27   14.81  373.85   15.15  387.97   15.43
  389.20   15.46  408.23   15.83  465.93   16.91  476.37   17.10  513.81   17.76
  618.17   19.48  661.76   20.16  763.66   21.65  855.74   22.92  872.93   23.15
  939.84   24.02  972.38   24.43  910.37   23.64  837.94   22.68  761.20   21.62
  647.64   19.94  666.05   20.22  559.24   18.53  475.14   17.08  469.61   16.98
  432.17   16.29  416.21   15.98  442.60   16.48  426.03   16.17  462.86   16.86
  505.83   17.62  527.32   17.99  529.16   18.02  524.25   17.94  525.48   17.96
  507.06   17.64  469.61   16.98  469.00   16.97  427.87   16.21  410.23   12.85
  410.63   12.86  386.07   12.47  371.98   12.24  352.07   14.47  363.96   14.71
  383.59   15.10  359.80   14.63  353.26   14.49  317.57   13.74  340.77   14.24
  343.15   14.29  344.34   14.31  326.49   13.93  322.93   13.86  335.41   14.12
  319.36   13.78  352.66   14.48  344.34   14.31  317.57   13.74  331.85   14.05
  327.09   13.95  329.47   14.00  347.90   14.38  330.06   14.01  332.44   14.06
  357.42   14.58  336.01   14.14  346.12   14.35  341.36   14.25  354.45   14.52
  331.85   14.05  337.20   14.16  340.77   14.24  338.98   14.20  341.36   14.25
  318.76   13.77  349.69   14.42  350.88   14.45  330.06   14.01  319.95   13.79
  363.37   14.70  347.90   14.38  338.39   14.19  331.85   14.05  341.96   14.26
  375.26   14.94  355.63   14.54  369.91   14.83  390.13   15.23  409.16   15.60
  432.35   16.04  458.52   16.51  473.39   16.78  523.10   14.58  597.83   15.58
  637.22   16.09  707.08   16.95  775.79   21.78  866.88   23.02  920.68   23.72
 1101.64   25.95 1210.45   27.20 1340.67   28.63 1396.30   29.22 1385.30   29.10
 1327.22   28.48 1251.41   27.66 1125.48   26.23  959.19   24.22  888.28   23.30
  761.73   21.58  647.41   19.89  575.88   18.76  510.47   17.67  427.33   16.16
  411.43   15.86  388.20   15.41  358.86   14.81  369.25   15.02  369.25   15.02
  349.08   14.61  344.18   14.51  372.92   15.10  347.85   14.58  346.02   14.54
  346.02   14.54  359.47   14.82  342.96   14.48  369.86   15.04  385.14   15.34
  393.70   15.51  389.42   15.43  401.65   15.67  483.57   17.19  487.24   17.26
  510.47   17.67  545.93   18.27  544.70   18.25  504.97   17.57  553.87   18.40
  553.26   18.39  495.80   17.41  484.79   17.22  479.29   17.12  453.00   16.64
  438.33   16.37  402.15   12.77  404.99   12.81  358.77   12.06  407.42   12.85
  391.20   12.59  367.69   12.21  376.61   15.29  416.94   16.08  407.01   15.89
  456.65   16.83  510.63   17.80  526.76   18.08  556.54   18.58  586.32   19.07
  662.01   20.27  616.10   19.55  688.07   20.66  621.68   19.64  579.49   18.96
  545.99   18.41  500.08   17.61  495.11   17.53  443.00   16.58  411.97   15.99
  389.02   15.54  389.02   15.54  367.30   15.10  356.76   14.88  358.62   14.92
  365.44   15.06  340.00   14.52  336.90   14.46  330.08   14.31  346.83   14.67
  341.24   14.55  356.13   14.86  340.00   14.52  337.52   14.47  358.00   14.90
  343.73   14.60  343.73   14.60  334.42   14.40  328.21   14.27  360.48   14.96
  379.71   15.35  373.51   15.22  378.47   15.32  385.92   15.47  372.27   15.20
  389.02   15.54  431.21   16.36  450.44   16.72  482.08   17.29  533.58   18.19
  557.43   15.12  575.06   15.35  619.33   15.93  686.96   16.78  726.30   17.25
  772.21   17.79  806.51   22.05  910.79   23.43  927.67   23.65  934.90   23.74
  901.75   23.31  833.03   22.41  805.30   22.03  692.59   20.43  672.69   20.14
  617.24   19.29  553.95   18.27  543.10   18.09  490.05   17.19  484.63   17.09
  493.07   17.24  499.70   17.36  543.70   18.10  570.83   18.55  643.76   19.70
  658.83   19.93  749.25   21.25  834.84   22.43  808.32   22.07  845.69   22.58
  816.76   22.19  808.32   22.07  719.11   20.82  669.68   20.09  619.65   19.33
  581.07   18.72  533.45   17.93  478.00   16.97  461.12   16.67  450.27   16.47
  443.04   16.34  458.11   16.62  437.01   16.23  439.42   16.27  443.64   16.35
  434.60   16.19  441.23   16.31  458.71   16.63  447.86   16.43  444.24   16.36
  441.23   16.31  467.15   16.78  479.81   17.01  484.06   13.85  509.80   14.21
  547.83   14.73  636.56   15.88  670.23   16.29  767.68   17.44  904.04   23.10
 1065.25   25.08 1244.17   27.10 1462.06   29.38 1632.71   31.05 1724.83   31.91
 1855.33   33.10 1910.25   33.59 1874.22   33.27 1746.68   32.12 1650.43   31.22
 1454.97   29.31 1335.10   28.08 1156.19   26.13  971.36   23.95  829.05   22.13
  737.53   20.87  624.74   19.21  554.47   18.09  478.89   16.82  451.73   16.33
  406.26   15.49  400.94   15.39  362.56   14.63  340.71   14.18  338.35   14.13
  327.72   13.91  349.57   14.37  325.36   13.86  363.74   14.66  337.76   14.12
  331.27   13.99  334.81   14.06  315.32   13.65  341.30   14.20  313.55   13.61
  315.91   13.66  333.04   14.02  343.67   14.25  339.53   14.16  348.39   14.34
  354.30   14.46  341.90   14.21  345.44   14.28  373.19   14.84  319.46   13.73
  333.04   14.02  350.16   14.38  339.53   14.16  328.31   11.38  351.96   11.78
  334.61   11.48  319.24   11.22  356.29   11.85  348.11   14.27  332.31   13.94
  331.72   13.93  322.95   13.75  331.14   13.92  316.51   13.61  327.04   13.83
  348.11   14.27  338.16   14.07  356.30   14.44  346.94   14.25  335.23   14.00
  332.31   13.94  345.18   14.21  326.46   13.82  350.45   14.32  373.85   14.79
  327.63   13.84  341.09   14.13  363.90   14.59  366.83   14.65  363.32   14.58
  369.75   14.71  403.10   15.36  399.01   15.28  477.40   16.71  439.37   16.03
  479.74   16.75  535.32   17.70  602.02   18.77  647.65   19.47  748.87   20.93
  902.15   22.97 1011.55   24.33 1168.35   26.14 1303.50   27.62 1498.90   29.61
 1585.49   30.46 1711.86   31.65 1765.69   32.14 1734.09   31.85 1702.50   31.56
 1596.61   30.56 1505.92   29.68 1385.40   28.47 1253.18   27.08 1173.03   26.20
 1019.75   24.43  874.70   18.65  752.59   17.30  695.31   16.63  611.77   15.60
  567.62   15.03  556.26   18.37  558.69   18.41  533.82   18.00  589.63   18.91
  599.94   19.08  625.42   19.48  633.30   19.60  657.57   19.97  661.81   20.04
  690.32   20.46  659.99   20.01  669.70   20.16  641.19   19.72  575.67   18.69
  532.61   17.97  507.73   17.55  447.07   16.47  424.63   16.05  428.27   16.12
  391.87   15.42  392.48   15.43  346.98   14.51  363.97   14.86  361.54   14.81
  363.97   14.86  335.46   14.27  347.59   14.52  339.10   14.34  347.59   14.52
  334.85   14.25  325.14   14.04  352.44   14.62  336.67   14.29  358.51   14.75
  334.24   14.24  367.00   14.92  336.67   14.29  365.79   14.90  344.56   14.46
  343.34   14.43  374.89   15.08  387.02   15.32  419.78   15.96  430.09   16.15
  470.73   16.90  505.91   17.52  462.85   16.76  524.11   17.83  562.33   18.47
  626.02   19.49  718.35   17.00  791.96   17.85  892.51   18.95 1007.14   20.13
 1169.63   21.69 1326.03   28.41 1321.16   28.36 1416.13   29.36 1439.88   29.61
 1460.58   29.82 1419.79   29.40 1338.81   28.55 1220.70   27.26 1142.77   26.38
 1013.09   24.84  896.19   23.36  836.53   22.57  673.97   20.26  639.88   19.74
  559.51   18.46  512.02   17.66  467.58   16.87  434.09   16.26  356.77   14.74
  379.30   15.20  361.04   14.83  346.42   14.52  388.43   15.38  365.30   14.91
  389.04   15.39  395.74   15.52  365.91   14.93  347.03   14.54  386.00   15.33
  354.95   14.70  372.60   15.06  432.88   16.23  421.31   16.02  484.02   17.17
  488.28   17.24  521.16   17.81  568.04   18.60  594.22   19.02  593.00   19.00
  616.13   19.37  646.58   19.84  671.54   20.22  657.53   20.01  663.62   20.10
  647.79   19.86  676.41   20.29  632.57   19.62  659.36   20.04  614.92   19.35
  646.85   16.01  652.00   16.08  643.68   15.97  717.00   16.86  795.58   21.52
  869.49   22.50  909.06   23.00 1001.60   24.14 1069.11   24.94 1138.95   25.75
 1207.62   26.51 1277.46   27.27 1250.11   26.97 1326.35   27.78 1253.60   27.01
 1240.22   26.87 1193.07   26.35 1125.56   25.59 1014.99   24.30  963.19   23.68
  874.73   22.56  773.46   21.22  707.70   20.29  702.46   20.22  580.24   18.38
  547.65   17.85  515.06   17.31  529.03   17.55  456.28   16.30  431.83   15.85
  398.66   15.23  386.44   15.00  377.13   14.81  371.89   14.71  361.41   14.50
  368.98   14.65  364.32   14.56  351.52   14.30  350.36   14.28  362.58   14.53
  352.10   14.31  379.46   14.86  356.76   14.41  366.65   14.61  375.96   14.79
  366.07   14.60  391.68   15.10  385.28   14.97  382.37   14.92  401.57   15.29
  411.47   15.47  441.73   16.03  458.61   16.34  474.32   16.61  511.56   14.28
  523.92   14.45  558.61   14.92  549.84   14.81  578.55   15.19  582.55   18.68
  581.35   18.66  574.76   18.55  608.89   19.09  542.43   18.02  549.62   18.14
  531.06   17.83  505.91   17.40  536.45   17.92  496.93   17.25  510.70   17.49
  542.43   18.02  561.59   18.34  603.50   19.01  616.08   19.21  684.93   20.25
  719.05   20.75  806.47   21.97  936.39   23.68 1017.81   24.69 1178.27   26.56
 1309.98   28.01 1467.44   29.64 1684.18   31.75 1945.22   34.13 2183.51   36.16
 2491.24   38.62 2593.02   39.40 2778.63   40.79 2825.92   41.13 3018.11   42.51
 2928.30   41.87 2898.97   41.66 2713.37   40.31 2533.75   38.95 2407.42   37.97
 2178.72   36.12 1913.49   33.85 1758.42   32.45 1438.71   29.35 1280.05   27.68
 1121.99   25.92  960.34   23.98  842.39   22.46  730.43   20.91  663.37   19.93
  581.35   18.66  527.47   17.77  467.59   16.73  433.76   13.35  437.46   13.40
  400.08   12.82  387.76   12.62  381.60   12.52  384.81   15.74  377.73   15.59
  382.24   15.68  424.07   16.52  420.21   16.44  464.61   17.29  447.23   16.96
  474.26   17.47  483.27   17.63  492.92   17.81  528.96   18.45  559.85   18.98
  566.28   19.09  501.93   17.97  604.25   19.72  562.42   19.02  568.21   19.12
  604.25   19.72  559.20   18.97  511.58   18.14  517.37   18.25  483.27   17.63
  480.05   17.58  470.40   17.40  415.06   16.34  414.41   16.33  389.32   15.83
  402.83   16.10  400.26   16.05  366.15   15.35  377.09   15.58  344.27   14.88
  380.95   15.66  337.19   14.73  347.49   14.95  333.98   14.66  359.72   15.21
  342.99   14.86  355.21   15.12  370.66   15.44  384.17   15.72  390.60   15.85
  388.67   15.81  389.32   15.83  410.55   16.25  407.34   16.19  422.14   16.48
  428.57   16.61  438.64   13.49  439.47   13.50  460.61   13.82  524.46   14.75
  546.43   15.05  584.16   15.56  589.92   19.07  605.95   19.33  653.41   20.07
  649.10   20.00  640.47   19.87  657.73   20.14  700.88   20.79  678.07   20.44
  641.70   19.89  662.04   20.20  586.22   19.01  605.95   19.33  626.91   19.66
  570.20   18.75  541.84   18.28  558.48   18.55  543.07   18.30  530.13   18.08
  557.87   18.54  574.51   18.82  652.18   20.05  637.39   19.82  665.74   20.26
  694.10   20.68  798.27   22.18  866.08   23.11  920.94   23.83 1036.22   25.27
 1167.51   26.83 1288.33   28.18 1409.15   29.47 1469.56   30.10 1588.53   31.29
 1622.44   31.62 1651.41   31.91 1719.83   32.56 1695.18   32.33 1612.58   31.53
 1592.23   31.33 1579.90   31.21 1494.84   30.36 1433.19   29.72 1307.44   28.39
 1183.54   27.01 1063.34   25.60 1004.16   24.88  898.14   23.53  849.44   22.88
  769.30   21.78  711.51   16.92  660.03   16.29  637.10   16.01  597.29   15.50
  577.58   15.24  567.36   18.15  516.26   17.31  505.23   17.13  489.55   16.86
  506.39   17.15  475.03   16.61  509.87   17.21  505.23   17.13  523.23   17.43
  563.88   18.10  525.55   17.47  583.62   18.41  622.53   19.01  691.06   20.03
  732.29   20.62  808.36   21.67  817.65   21.79  890.24   22.74  898.37   22.84
  951.22   23.50  996.52   24.06 1051.10   24.71  936.12   23.32  970.96   23.75
  996.52   24.06  948.32   23.47  977.93   23.83  934.38   23.29  861.79   22.37
  797.33   21.52  761.90   21.03  713.70   20.36  677.12   19.83  578.98   18.34
  558.07   18.00  540.65   17.72  492.45   16.91  464.00   16.41  426.25   15.73
  416.38   15.55  409.99   15.43  401.86   15.28  407.67   15.39  397.79   15.20
  356.56   14.39  342.04   14.09  351.92   14.30  346.11   14.18  354.82   14.35
  370.05   11.94  347.69   11.58  366.58   11.89  342.30   11.49  369.76   14.59
  388.19   14.95  358.24   14.36  395.68   15.10  381.28   14.82  396.83   15.12
  374.37   14.68  398.56   15.15  399.14   15.16  431.97   15.77  447.52   16.05
  447.52   16.05  441.76   15.95  478.04   16.59  519.51   17.30  573.07   18.17
  571.35   18.14  607.63   18.71  665.80   19.58  749.89   20.78  775.23   21.13
  794.24   21.39  920.37   23.02  950.90   23.40 1028.08   24.33 1045.93   24.54
 1083.37   24.98 1107.56   25.26 1110.44   25.29 1127.72   25.49 1120.81   25.41
 1106.98   25.25 1082.79   24.97 1043.63   24.52 1009.65   24.11  995.82   23.95
  925.56   23.09  838.01   21.97  813.82   21.65  737.80   20.61  659.47   19.49
  654.28   19.41  626.06   18.99  564.43   18.03  554.64   17.87  504.54   17.05
  531.61   17.50  486.11   16.73  488.98   16.78  500.86   14.26  485.84   14.04
  516.69   14.48  483.82   14.01  544.29   14.86  506.14   14.33  571.96   18.91
  568.21   18.85  661.35   20.33  608.22   19.50  653.85   20.22  727.61   21.33
  777.00   22.04  831.38   22.80  837.63   22.88  919.52   23.97  961.40   24.51
 1054.54   25.67 1016.41   25.21 1103.30   26.26 1114.55   26.40 1130.80   26.59
 1063.29   25.78 1113.92   26.39 1116.42   26.42 1052.04   25.64 1069.54   25.86
 1037.66   25.47  988.90   24.86  952.02   24.39  950.77   24.38  887.01   23.55
  894.51   23.65  828.25   22.75  847.63   23.02  836.38   22.87  832.63   22.81
  811.38   22.52  880.14   23.46  930.15   24.11  953.27   24.41  988.90   24.86
 1035.16   25.44 1125.80   26.53 1096.42   26.18 1168.31   27.02 1202.06   27.41
 1222.69   27.65 1299.58   28.50 1245.19   27.90 1298.95   28.50 1263.95   28.11
 1218.32   27.60 1241.44   27.86 1215.81   27.57 1160.18   26.93 1153.31   26.85
 1100.17   26.22 1002.03   25.03  950.15   24.37  892.10   35.02  823.37   33.64
  747.77   32.06  657.04   30.05  597.94   28.67  552.58   27.56  567.70   27.93
  548.45   27.46  494.85   26.08  452.23   24.93  441.24   24.63  435.74   24.47
  424.74   24.16  400.00   23.45  398.63   23.41  373.88   22.67  424.74   24.16
  423.37   24.12  375.26   22.71  356.01   22.12  361.51   22.29  405.50   23.61
  371.13   22.59  416.49   23.93  419.24   24.01  364.26   22.38  441.24   24.63
  463.23   25.23  453.61   24.97  427.49   24.24  463.23   25.23  512.71   26.55
  516.84   26.65  551.20   27.53  489.35   25.94  496.22   26.12  503.09   26.30
  573.20   28.07  516.84   26.65  515.46   26.62  538.83   27.22  549.83   27.49
  585.57   28.37  512.71   26.55  511.34   26.51  569.07   27.97  514.09   26.58
  545.70   27.39  508.59   26.44  507.22   26.40  427.49   24.24  494.85   26.08
  406.87   23.65                                                                