                                                                                
BANK 1 2431 487 CONST  602.500    5.000 0 0 ESD                                 
  521.99   24.34  484.54   23.45  523.12   24.36  520.85   24.31  459.57   22.84
  535.60   24.65  524.26   24.39  482.27   23.39  510.64   24.07  494.75   23.69
  518.58   24.26  525.39   24.42  495.89   23.72  502.70   23.88  503.83   23.91
  508.37   24.02  473.19   23.17  478.87   23.31  501.56   23.86  473.19   23.17
  497.02   23.75  503.83   23.91  532.20   24.57  452.77   22.67  465.25   22.98
  476.60   23.26  523.12   24.36  506.10   23.96  480.00   23.34  434.61   22.21
  525.39   24.42  506.10   23.96  509.50   24.04  473.19   23.17  499.29   23.80
  490.21   23.59  487.94   23.53  526.52   24.44  498.16   23.78  504.96   23.94
  485.67   23.48  535.60   24.65  480.00   23.34  518.58   24.26  478.87   23.31
  497.02   23.75  473.19   23.17  490.21   23.59  526.52   24.44  510.64   24.07
  503.83   23.91  487.94   23.53  520.56   17.15  480.99   16.49  499.65   16.80
  486.08   16.58  480.99   16.49  496.82   16.76  494.56   16.72  480.43   16.48
  500.78   16.82  513.78   17.04  494.56   16.72  484.39   16.55  508.12   16.95
  457.82   16.09  489.47   16.63  512.65   17.02  483.82   16.54  483.26   16.53
  489.47   16.63  499.65   16.80  474.21   16.37  500.21   16.81  463.47   16.19
  492.30   16.68  491.73   16.67  489.47   16.63  501.34   16.83  477.04   16.42
  488.91   16.62  478.17   16.44  478.17   16.44  504.73   16.89  488.91   16.62
  493.99   16.71  482.69   16.52  486.65   16.58  478.17   16.44  479.86   16.47
  449.91   15.95  481.56   16.50  469.69   16.29  495.13   16.73  432.39   15.63
  482.13   16.51  470.82   16.31  497.95   16.78  450.47   15.96  489.47   16.63
  487.21   16.59  483.26   16.53  501.34   16.83  488.91   16.62  466.86   16.24
  480.10   13.38  488.30   13.49  474.51   13.30  462.59   13.13  478.24   13.35
  470.04   13.24  483.83   13.43  475.63   13.32  461.84   16.01  489.59   16.49
  458.51   15.95  485.71   16.42  455.18   15.90  456.84   15.92  525.12   17.07
  492.92   16.54  469.05   16.14  470.16   16.16  487.37   16.45  445.74   15.73
  478.49   16.30  447.40   15.76  448.52   15.78  474.60   16.23  490.15   16.49
  483.49   16.38  468.50   16.13  475.71   16.25  485.15   16.41  446.29   15.74
  444.63   15.71  481.82   16.35  456.29   15.91  477.38   16.28  467.39   16.11
  482.38   16.36  466.83   16.10  476.82   16.27  449.07   15.79  459.06   15.96
  449.07   15.79  446.29   15.74  468.50   16.13  477.94   16.29  441.30   15.65
  480.71   16.34  449.07   15.79  450.74   15.82  476.27   16.26  494.59   16.57
  459.62   15.97  466.83   16.10  466.83   16.10  472.38   16.19  439.08   15.61
  473.54   13.26  454.97   13.00  463.14   13.12  463.88   13.13  475.02   13.28
  486.56   16.42  464.95   16.05  455.53   15.89  464.39   16.04  469.94   16.14
  473.82   16.20  494.87   16.56  474.92   16.22  459.96   15.97  466.06   16.07
  446.66   15.73  483.79   16.37  453.87   15.86  457.74   15.93  458.30   15.94
  459.41   15.96  474.37   16.21  464.39   16.04  480.47   16.32  483.79   16.37
  473.26   16.19  483.24   16.36  463.84   16.03  456.64   15.91  453.87   15.86
  446.11   15.72  458.30   15.94  452.20   15.83  436.69   15.56  454.97   15.88
  459.41   15.96  459.96   15.97  479.36   16.30  463.84   16.03  448.32   15.76
  448.88   15.77  449.43   15.78  462.18   16.00  454.97   15.88  453.31   15.85
  432.81   15.49  487.67   16.44  457.74   15.93  466.06   16.07  436.13   15.55
  468.27   16.11  451.65   15.82  465.50   16.06  443.34   15.67  455.53   15.89
  453.56   12.95  471.31   13.20  450.24   12.90  454.30   15.92  458.77   16.00
  468.26   16.17  421.38   15.34  466.58   16.14  457.65   15.98  468.82   16.18
  459.33   16.01  471.05   16.21  447.05   15.80  456.54   15.96  426.96   15.44
  424.72   15.40  465.47   16.12  450.40   15.85  475.51   16.29  458.21   15.99
  477.75   16.33  500.63   16.72  511.23   16.89  516.26   16.97  502.86   16.75
  557.00   17.63  598.30   18.27  607.79   18.42  650.20   19.05  656.90   19.15
  758.48   20.57  876.80   22.12  954.93   23.09 1221.71   26.11 1409.79   28.05
 1683.27   30.65 2001.40   33.42 2202.87   35.06 2262.59   35.54 2164.92   34.76
 1909.31   32.64 1550.44   29.42 1180.41   25.67  823.78   21.44  628.44   18.73
  509.56   16.86  485.56   16.46  424.17   15.39  440.35   15.68  428.07   15.46
  465.47   16.12  459.33   16.01  462.12   16.06  466.58   16.14  447.40   13.14
  468.61   13.44  458.20   13.29  447.40   13.14  463.64   16.51  474.22   16.69
  440.14   16.08  424.86   15.80  447.77   16.22  490.08   16.97  455.41   16.36
  485.97   16.90  508.89   17.29  490.08   16.97  572.35   18.34  585.28   18.55
  578.23   18.43  639.93   19.39  733.36   20.76  867.34   22.58 1000.15   24.24
 1240.49   27.00 1449.68   29.19 1803.44   32.55 2089.03   35.04 2216.54   36.09
 2178.35   35.78 2091.96   35.06 1755.84   32.12 1335.68   28.02 1031.29   24.62
  740.41   20.86  586.46   18.56  477.16   16.74  444.25   16.16  467.17   16.57
  432.50   15.94  460.70   16.45  437.78   16.04  423.09   15.77  410.75   15.54
  408.40   15.49  458.35   16.41  433.08   15.95  441.31   16.10  432.50   15.94
  458.35   16.41  431.91   15.93  464.82   16.53  440.72   16.09  424.86   15.80
  420.74   15.72  441.31   16.10  447.49   13.32  434.79   13.13  437.57   13.18
  424.48   12.98  454.23   13.42  438.36   13.19  426.54   16.23  445.68   16.59
  433.95   16.37  471.60   17.06  446.30   16.60  435.80   16.40  449.38   16.66
  432.72   16.34  456.17   16.78  450.62   16.68  485.19   17.31  446.30   16.60
  475.93   17.14  470.37   17.04  514.20   17.82  543.21   18.31  583.33   18.98
  642.59   19.92  735.19   21.30  760.49   21.67  819.75   22.49  874.69   23.24
  890.74   23.45  862.35   23.07  808.64   22.34  711.73   20.96  593.21   19.14
  517.28   17.87  464.81   16.94  472.84   17.08  430.86   16.31  461.11   16.87
  454.32   16.75  452.47   16.71  427.16   16.24  414.81   16.00  453.70   16.74
  449.38   16.66  429.63   16.29  477.16   17.16  446.91   16.61  442.59   16.53
  427.16   16.24  429.63   16.29  434.57   16.38  441.36   16.51  446.91   16.61
  437.65   16.44  421.43   13.36  435.83   13.59  445.15   13.73  459.97   13.96
  442.19   13.69  412.11   13.21  424.36   16.49  435.90   16.72  417.95   16.37
  431.41   16.63  446.79   16.92  428.85   16.58  432.05   16.64  466.67   17.30
  408.33   16.18  435.90   16.72  442.31   16.84  464.10   17.25  430.77   16.62
  438.46   16.76  402.56   16.06  437.82   16.75  421.15   16.43  453.21   17.04
  420.51   16.42  431.41   16.63  416.67   16.34  426.92   16.54  415.38   16.32
  431.41   16.63  421.15   16.43  423.72   16.48  412.18   16.25  450.00   16.98
  428.85   16.58  414.10   16.29  460.26   17.18  439.74   16.79  457.69   17.13
  436.54   16.73  425.00   16.51  423.08   16.47  407.05   16.15  442.31   16.84
  432.69   16.65  446.15   16.91  403.85   16.09  456.41   17.10  433.97   16.68
  464.74   17.26  449.36   16.97  422.44   16.46  439.74   16.79  410.90   16.23
  401.28   16.04  437.43   13.44  408.95   12.99  431.65   13.35  456.41   13.72
  422.63   16.23  436.96   16.50  443.82   16.63  430.73   16.39  366.53   15.12
  400.19   15.79  439.46   16.55  438.83   16.54  410.78   16.00  458.78   16.91
  431.35   16.40  415.77   16.10  383.98   15.47  413.28   16.05  429.48   16.36
  413.28   16.05  420.76   16.19  400.19   15.79  431.35   16.40  443.20   16.62
  437.59   16.52  457.53   16.89  447.56   16.70  393.33   15.66  417.64   16.13
  423.25   16.24  425.74   16.29  421.38   16.21  439.46   16.55  450.68   16.76
  431.98   16.41  418.26   16.15  402.06   15.83  407.04   15.93  423.25   16.24
  415.15   16.09  405.80   15.90  427.61   16.33  390.84   15.61  447.56   16.70
  436.34   16.49  430.73   16.39  424.50   16.27  423.87   16.25  440.70   16.57
  429.48   16.36  418.26   16.15  435.72   16.48  437.59   16.52  443.23   13.40
  427.43   13.16  410.41   12.89  429.86   13.20  418.92   13.03  433.06   15.83
  440.01   15.96  418.01   15.56  428.43   15.75  431.32   15.80  432.48   15.82
  422.64   15.64  434.80   15.87  456.80   16.26  419.74   15.59  407.58   15.36
  431.90   15.81  403.53   15.28  405.27   15.32  403.53   15.28  448.11   16.11
  433.64   15.84  412.79   15.46  445.22   16.05  433.06   15.83  432.48   15.82
  406.43   15.34  416.27   15.52  423.80   15.66  412.22   15.45  415.11   15.50
  433.06   15.83  429.01   15.76  432.48   15.82  417.43   15.55  433.64   15.84
  442.32   16.00  448.11   16.11  415.69   15.51  411.64   15.44  455.06   16.23
  435.95   15.89  431.90   15.81  444.06   16.03  437.69   15.92  427.85   15.74
  452.74   16.19  423.22   15.65  405.85   15.33  415.69   15.51  419.16   15.58
  386.16   14.95  412.79   15.46  433.64   15.84  394.85   15.12  414.01   12.71
  428.84   12.94  403.86   12.55  394.11   12.40  412.45   12.69  415.42   15.63
  431.89   15.94  413.65   15.60  430.13   15.91  410.71   15.55  409.53   15.52
  409.53   15.52  401.29   15.37  396.00   15.26  440.13   16.09  424.24   15.80
  407.18   15.48  406.00   15.46  427.18   15.85  413.65   15.60  408.94   15.51
  429.54   15.90  428.95   15.89  412.47   15.58  391.88   15.19  430.71   15.92
  426.60   15.84  386.00   15.07  449.54   16.26  428.95   15.89  466.02   16.56
  431.30   15.93  499.56   17.14  541.92   17.86  591.35   18.65  714.33   20.50
  852.02   22.39 1029.13   24.61 1249.78   27.12 1347.46   28.16 1363.34   28.32
 1300.38   27.66 1075.61   25.16  910.27   23.14  719.04   20.57  600.76   18.80
  489.56   16.97  438.36   16.06  424.83   15.81  419.54   15.71  420.12   15.72
  424.24   15.80  426.01   15.83  424.63   12.84  412.98   12.67  413.75   12.68
  412.98   12.67  405.59   12.55  422.81   15.72  438.01   16.00  412.28   15.53
  417.54   15.63  405.26   15.39  386.55   15.04  425.73   15.78  393.57   15.17
  448.54   16.20  436.26   15.97  424.56   15.76  392.98   15.16  385.38   15.01
  400.00   15.29  409.36   15.47  417.54   15.63  436.84   15.98  411.70   15.52
  428.07   15.82  418.71   15.65  390.06   15.10  401.75   15.33  424.56   15.76
  401.75   15.33  397.66   15.25  426.90   15.80  418.71   15.65  407.02   15.43
  429.24   15.84  391.23   15.13  418.71   15.65  412.28   15.53  442.69   16.09
  419.30   15.66  414.04   15.56  445.61   16.14  442.69   16.09  449.71   16.22
  505.26   17.19  496.49   17.04  573.68   18.32  649.71   19.49  725.15   20.59
  740.35   20.81  782.46   21.39  922.81   23.23 1090.06   25.25 1316.37   27.75
 1670.76   31.26 1957.59   27.66 2272.65   29.81 2356.69   30.35 2242.16   29.60
 1916.54   27.37 1523.31   24.40 1237.56   26.80  896.24   22.81  648.38   19.40
  537.51   17.66  445.22   16.08  448.12   16.13  427.80   15.76  444.64   16.07
  414.45   15.51  422.00   15.65  433.03   15.85  446.96   16.11  409.23   15.41
  409.23   15.41  457.99   16.30  439.41   15.97  437.09   15.93  456.83   16.28
  473.08   16.57  496.88   16.98  581.05   18.37  735.45   20.66  964.16   23.66
 1401.83   28.53 2263.24   36.25 3428.82   44.61 5451.75   56.25 8053.98   68.37
11071.83   80.1713848.21   89.6615582.64   95.1115373.68   94.4713559.72   88.72
10516.91   78.13 7265.71   64.94 4465.53   50.91 2537.22   38.38 1304.89   27.52
  774.92   21.21  553.19   17.92  507.33   17.16  474.24   16.59  482.95   16.74
  474.82   16.60  505.59   17.13  560.73   18.04  639.67   19.27  768.04   17.81
  989.37   20.21 1314.75   23.30 1612.06   25.80 1911.01   28.09 2129.04   29.65
 2074.00   36.61 1959.61   35.59 1527.23   31.42 1143.32   27.18  882.21   23.88
  635.97   20.27  517.05   18.28  480.85   17.63  449.83   17.05  474.39   17.51
  436.90   16.80  445.95   16.98  420.75   16.49  414.93   16.38  453.06   17.11
  418.16   16.44  394.25   15.96  383.91   15.75  418.16   16.44  407.17   16.22
  427.86   16.63  431.09   16.69  458.23   17.21  505.41   18.07  505.41   18.07
  535.79   18.61  551.95   18.89  530.62   18.52  603.01   19.74  509.29   18.14
  544.19   18.75  506.71   18.10  531.27   18.53  474.39   17.51  447.89   17.01
  450.48   17.06  436.90   16.80  418.16   16.44  386.49   15.80  430.44   16.68
  398.13   16.04  402.00   16.12  420.10   16.48  426.56   16.60  416.87   16.41
  406.53   16.21  398.13   16.04  411.05   16.30  389.72   15.87  401.01   12.96
  397.65   12.91  415.25   13.19  398.07   12.92  408.55   13.08  387.45   15.87
  380.30   15.72  405.01   16.23  399.15   16.11  379.00   15.70  402.41   16.17
  413.46   16.39  384.85   15.82  382.90   15.78  414.76   16.42  406.96   16.27
  391.35   15.95  419.31   16.51  373.15   15.58  397.85   16.08  396.55   16.06
  397.85   16.08  363.40   15.37  391.35   15.95  388.75   15.90  387.45   15.87
  382.25   15.76  399.80   16.12  407.61   16.28  362.10   15.34  390.70   15.94
  385.50   15.83  384.85   15.82  379.65   15.71  413.46   16.39  444.01   16.99
  401.11   16.15  394.60   16.02  375.10   15.62  397.20   16.07  374.45   15.60
  392.00   15.96  399.80   16.12  414.11   16.41  403.71   16.20  373.15   15.58
  412.81   16.38  403.71   16.20  367.30   15.45  369.25   15.49  418.66   16.50
  367.30   15.45  412.81   16.38  399.80   16.12  402.01   13.11  405.43   13.16
  405.43   13.16  406.28   13.17  367.90   14.97  422.72   16.05  368.51   14.98
  410.54   15.81  395.92   15.53  410.54   15.81  361.81   14.85  378.86   15.19
  375.82   15.13  369.12   14.99  381.30   15.24  419.67   15.99  370.34   15.02
  370.34   15.02  373.99   15.09  392.87   15.47  378.86   15.19  406.27   15.73
  419.07   15.98  366.07   14.93  417.85   15.95  390.44   15.42  393.48   15.48
  419.07   15.98  373.99   15.09  372.77   15.07  389.22   15.40  367.90   14.97
  403.84   15.68  408.71   15.78  374.60   15.11  420.28   16.00  403.84   15.68
  417.24   15.94  442.21   16.41  473.88   16.99  539.06   18.12  589.61   18.95
  690.73   20.51  782.70   21.83  817.42   22.31  850.92   22.77  824.73   22.41
  732.15   21.12  595.71   19.05  534.19   18.04  444.04   16.45  423.94   16.07
  397.14   15.55  403.23   15.67  404.04   12.71  414.44   12.88  404.44   12.72
  372.84   12.21  398.04   12.62  389.64   15.32  378.20   15.09  422.16   15.94
  409.52   15.70  454.08   16.54  464.32   16.72  542.61   18.08  687.74   20.35
  910.57   23.42 1209.88   26.99 1594.70   30.99 1909.06   33.91 2231.86   36.66
 2384.82   37.90 2175.85   36.20 1804.88   32.97 1438.12   29.43 1028.00   24.88
  823.85   22.27  607.05   19.12  493.83   17.25  416.14   15.83  414.94   15.81
  384.82   15.22  380.01   15.13  401.08   15.54  399.28   15.51  392.05   15.37
  385.43   15.24  401.08   15.54  404.10   15.60  359.53   14.71  402.29   15.57
  401.69   15.55  399.28   15.51  407.11   15.66  373.38   15.00  384.82   15.22
  370.37   14.93  385.43   15.24  367.36   14.87  378.80   15.10  392.05   15.37
  348.09   14.48  356.52   14.65  376.99   15.07  396.27   15.45  392.65   15.38
  395.06   15.42  380.07   12.48  391.96   12.68  380.07   12.48  398.93   12.79
  367.36   12.27  375.80   15.15  384.97   15.34  410.02   15.83  355.03   14.73
  395.36   15.54  393.52   15.51  386.80   15.37  402.69   15.69  424.69   16.11
  424.69   16.11  474.18   17.02  523.68   17.89  552.40   18.37  596.39   19.09
  681.33   20.40  836.54   22.61 1070.58   25.58 1465.32   29.92 2010.39   35.05
 2674.61   40.43 3440.27   45.85 3825.85   48.35 3958.45   49.18 3602.20   46.92
 2868.32   41.87 2353.19   37.92 1693.86   32.17 1157.96   26.60  826.15   22.47
  598.84   19.13  467.46   16.90  430.19   16.21  400.24   15.64  377.02   15.18
  385.58   15.35  374.58   15.13  399.63   15.63  355.64   14.74  353.80   14.70
  370.91   15.05  383.75   15.31  391.08   15.46  356.25   14.75  378.25   15.20
  383.13   15.30  372.14   15.08  401.47   15.66  377.02   15.18  383.13   15.30
  390.68   12.66  381.66   12.51  379.19   12.47  388.63   12.63  386.17   12.59
  385.75   15.63  383.85   15.59  423.12   16.37  419.32   16.30  442.76   16.75
  520.03   18.15  616.31   19.76  770.23   22.09  995.09   25.11 1264.29   28.30
 1525.26   31.08 1705.15   32.86 1842.60   34.16 1659.54   32.42 1427.71   30.07
 1160.41   27.11  922.88   24.18  685.35   20.84  556.77   18.78  483.93   17.51
  440.22   16.70  377.51   15.46  398.42   15.89  391.45   15.75  355.34   15.00
  391.45   15.75  402.85   15.97  377.51   15.46  393.98   15.80  390.82   15.73
  431.35   16.53  425.02   16.41  447.19   16.83  440.22   16.70  495.96   17.72
  541.57   18.52  547.27   18.62  536.50   18.43  502.93   17.85  499.13   17.78
  440.86   16.71  447.82   16.84  453.52   16.95  402.22   15.96  380.05   15.52
  391.45   15.75  392.08   15.76  402.85   15.97  374.98   15.41  371.69   12.67
  363.91   12.54  384.66   12.89  387.25   12.94  374.28   12.72  372.58   15.58
  390.16   15.94  369.97   15.52  397.98   16.10  364.11   15.40  388.86   15.92
  383.00   15.79  381.70   15.77  374.53   15.62  381.05   15.75  385.60   15.85
  377.14   15.67  382.35   15.78  362.16   15.36  414.26   16.43  379.09   15.71
  374.53   15.62  388.21   15.90  394.72   16.03  351.73   15.14  386.91   15.88
  361.50   15.35  371.28   15.55  391.47   15.97  391.47   15.97  382.35   15.78
  380.39   15.74  383.65   15.81  397.98   16.10  370.62   15.54  374.53   15.62
  378.44   15.70  382.35   15.78  414.92   16.44  429.90   16.73  474.19   17.57
  504.80   18.13  574.50   19.34  610.32   19.94  629.21   20.24  577.10   19.39
  594.04   19.67  563.43   19.16  504.80   18.13  460.51   17.32  431.85   16.77
  424.04   16.62  386.26   15.86  349.13   15.08  372.05   12.60  383.57   12.79
  382.72   12.78  379.31   12.72  365.23   12.48  366.70   15.41  387.43   15.84
  390.67   15.91  413.99   16.38  371.23   15.51  380.30   15.70  388.08   15.86
  380.95   15.71  388.73   15.87  400.39   16.11  408.16   16.26  398.45   16.07
  404.92   16.20  380.95   15.71  371.88   15.52  387.43   15.84  367.99   15.44
  423.06   16.56  415.29   16.40  404.92   16.20  397.80   16.05  413.35   16.36
  445.74   16.99  483.32   17.70  557.82   19.01  629.74   20.20  728.22   21.72
  772.92   22.38  768.38   22.31  762.55   22.23  759.96   22.19  681.57   21.01
  594.75   19.63  558.47   19.02  557.18   19.00  519.60   18.35  479.43   17.62
  456.75   17.20  456.75   17.20  471.01   17.47  465.82   17.37  417.23   16.44
  437.32   16.83  436.67   16.82  439.26   16.87  503.40   18.06  568.19   19.19
  612.89   19.93  754.13   22.10  848.75   18.81  921.25   19.59 1009.17   20.51
 1044.17   20.86 1166.67   22.05 1277.48   27.70 1499.10   30.01 1965.17   34.36
 2570.57   39.29 3129.73   43.36 3704.50   47.17 3986.79   48.93 3807.81   47.82
 3389.79   45.12 2837.24   41.28 2143.54   35.88 1514.11   30.16 1139.34   26.16
  815.62   22.13  639.04   19.59  521.92   17.70  463.66   16.69  386.19   15.23
  388.59   15.28  380.18   15.11  367.57   14.86  380.18   15.11  398.80   15.48
  372.97   14.97  325.53   13.98  371.77   14.94  368.17   14.87  377.78   15.06
  377.18   15.05  377.78   15.06  378.38   15.07  349.55   14.49  398.20   15.46
  360.96   14.72  383.18   15.17  392.79   15.36  373.57   14.98  418.02   15.84
  407.21   15.64  510.51   17.51  493.69   17.22  617.42   19.26  675.08   20.14
  745.35   21.16  766.97   21.46  737.54   21.05  742.94   21.12  723.12   20.84
  618.06   15.82  554.07   14.98  490.89   14.10  432.56   13.24  393.68   12.63
  397.73   12.69  362.54   14.78  408.31   15.68  377.60   15.08  382.41   15.18
  367.36   14.87  325.20   13.99  361.34   14.75  360.13   14.73  358.93   14.70
  367.36   14.87  393.86   15.40  386.63   15.26  406.50   15.65  414.33   15.80
  457.69   16.60  502.86   17.40  575.13   18.61  748.57   21.23  917.80   23.51
 1132.79   26.12 1377.30   28.80 1559.77   30.65 1570.01   30.75 1464.62   29.70
 1377.90   28.81 1224.33   27.15  950.92   23.93  813.61   22.14  621.50   19.35
  520.93   17.71  448.66   16.44  426.98   16.04  408.31   15.68  398.07   15.48
  375.79   15.04  389.04   15.31  369.17   14.91  386.03   15.25  361.94   14.76
  364.95   14.83  349.29   14.50  348.09   14.48  370.37   14.93  376.39   15.06
  380.01   15.13  372.18   14.97  362.54   14.78  373.98   15.01  359.68   12.10
  387.75   12.56  375.14   12.35  367.41   12.23  381.65   12.46  400.37   12.76
  376.58   15.34  395.32   15.71  421.55   16.23  417.80   16.15  426.54   16.32
  429.66   16.38  448.40   16.73  424.04   16.27  397.19   15.75  403.43   15.87
  399.69   15.80  407.18   15.95  397.19   15.75  365.96   15.12  369.71   15.20
  387.20   15.55  376.58   15.34  363.47   15.07  369.09   15.18  359.72   14.99
  367.21   15.14  344.73   14.67  354.72   14.88  359.72   14.99  386.57   15.54
  359.72   14.99  354.10   14.87  367.21   15.14  354.72   14.88  359.72   14.99
  372.21   15.25  366.59   15.13  372.83   15.26  368.46   15.17  367.84   15.16
  382.83   15.46  394.07   15.69  414.05   16.08  370.34   15.21  398.44   15.77
  406.56   15.93  409.06   15.98  434.04   16.46  464.01   17.02  472.76   17.18
  536.46   18.30  628.88   19.82  708.20   21.03  793.20   18.37  946.31   20.06
 1126.63   21.89 1416.27   24.54 1833.07   27.92 2315.72   38.69 2848.93   42.91
 3342.70   46.48 3676.85   48.75 3668.44   48.69 3414.44   46.98 3066.73   44.52
 2468.90   39.95 1987.40   35.84 1414.77   30.24 1097.43   26.63  820.16   23.02
  644.37   20.41  522.86   18.38  462.11   17.28  422.69   16.53  403.94   16.16
  404.59   16.17  363.87   15.34  399.42   16.07  364.52   15.35  356.12   15.17
  383.26   15.74  378.09   15.63  355.47   15.16  385.20   15.78  376.80   15.61
  402.00   16.12  387.14   15.82  361.29   15.28  379.38   15.66  378.74   15.65
  355.47   15.16  347.07   14.98  372.92   15.52  389.72   15.87  370.33   15.47
  367.10   15.40  396.83   16.01  378.74   15.65  387.78   15.83  356.76   15.18
  357.41   15.20  358.70   15.23  340.60   14.84  369.04   15.44  358.05   15.21
  363.87   15.34  361.29   15.28  386.72   13.17  377.75   13.02  372.36   12.92
  379.09   13.04  426.20   13.83  442.81   17.59  463.77   18.00  535.71   19.34
  620.22   20.81  734.07   22.64  903.09   25.11 1181.07   28.72 1441.59   31.73
 1778.24   35.24 1882.31   36.26 1940.98   36.82 1942.38   36.83 1817.36   35.63
 1619.70   33.63 1321.46   30.38 1095.16   27.66  944.30   25.68  808.10   23.76
  708.22   22.24  669.11   21.62  554.57   19.68  523.14   19.11  495.20   18.60
  439.32   17.52  423.96   17.21  426.75   17.26  412.78   16.98  405.10   16.82
  396.72   16.65  362.49   15.91  372.97   16.14  349.22   15.62  384.84   16.39
  372.27   16.12  376.46   16.22  365.99   15.99  356.91   15.79  356.91   15.79
  363.89   15.94  381.35   16.32  365.99   15.99  375.07   16.19  377.86   16.25
  379.95   16.29  413.48   16.99  391.83   16.54  401.61   16.75  455.39   17.83
  443.51   17.60  433.04   17.39  464.82   14.30  484.61   14.60  549.69   15.55
  601.58   16.26  734.91   21.96  898.29   24.28 1091.21   26.76 1348.43   29.75
 1760.50   33.99 2025.59   36.46 2363.52   39.38 2529.53   40.74 2538.71   40.81
 2400.26   39.69 2141.08   37.48 1797.90   34.35 1542.65   31.82 1231.63   28.43
  948.82   24.95  757.22   22.29  658.14   20.78  570.87   19.35  538.06   18.79
  569.55   19.33  595.80   19.77  696.19   21.37  830.05   23.34 1001.31   25.63
 1340.55   29.66 1614.83   32.55 2167.98   37.72 2741.47   42.41 3187.66   45.73
 3668.64   49.06 3759.84   49.67 3761.81   49.68 3328.74   46.74 2846.46   43.22
 2370.08   39.44 2022.97   36.43 1624.67   32.65 1296.59   29.17 1160.76   27.60
 1107.61   26.96 1032.81   26.03 1047.24   26.21 1099.74   26.86 1062.34   26.40
 1029.53   25.99 1005.91   25.69  853.02   23.66  785.43   22.70  707.35   21.54
  581.56   15.81  564.37   15.58  502.04   14.69  441.44   13.77  425.10   13.52
  428.03   16.13  426.81   16.11  431.07   16.19  414.65   15.88  455.39   16.64
  476.67   17.02  515.58   17.71  553.28   18.34  605.56   19.19  713.18   20.82
  765.47   21.57  854.23   22.79  812.28   22.22  835.99   22.55  769.72   21.63
  724.12   20.98  594.62   19.01  584.28   18.85  546.59   18.23  468.16   16.87
  413.44   15.85  406.75   15.73  380.00   15.20  395.20   15.50  335.61   14.28
  350.81   14.60  350.21   14.59  352.03   14.63  364.80   14.89  367.84   14.95
  363.58   14.87  353.85   14.67  361.76   14.83  369.66   14.99  358.11   14.76
  383.64   15.27  381.82   15.24  363.58   14.87  356.89   14.73  357.50   14.74
  355.07   14.69  366.62   14.93  340.48   14.39  355.07   14.69  347.77   14.54
  352.64   14.64  368.45   14.97  412.22   15.83  336.83   14.31  374.71   12.31
  368.23   12.21  400.20   12.73  380.37   12.41  370.26   12.24  373.90   12.30
  378.76   15.25  386.13   15.40  373.85   15.15  387.97   15.43  367.10   15.01
  367.71   15.02  384.90   15.37  389.20   15.46  354.82   14.76  349.91   14.66
  375.69   15.19  364.64   14.96  397.79   15.63  392.88   15.53  427.26   16.20
  408.23   15.83  430.33   16.25  480.05   17.17  488.64   17.32  591.16   19.05
  629.22   19.65  763.66   21.65  806.63   22.25  869.86   23.11  961.33   24.29
  965.01   24.34  914.06   23.69  872.31   23.14  821.98   22.46  742.79   21.35
  643.95   19.88  548.80   18.35  481.89   17.20  475.75   17.09  480.66   17.18
  428.48   16.22  435.24   16.35  483.73   17.23  502.15   17.56  484.35   17.24
  507.06   17.64  531.00   18.05  565.99   18.64  545.12   18.29  536.53   18.15
  519.95   17.87  467.77   16.95  446.90   16.56  387.97   15.43  420.69   13.01
  396.14   12.63  379.63   12.36  357.89   12.00  391.32   15.26  395.48   15.34
  352.07   14.47  378.23   15.00  332.44   14.06  365.74   14.75  364.56   14.72
  337.20   14.16  357.42   14.58  382.40   15.08  350.28   14.43  366.34   14.76
  358.01   14.59  349.09   14.41  356.82   14.57  331.25   14.04  374.67   14.93
  342.55   14.27  341.96   14.26  335.41   14.12  348.50   14.40  365.15   14.74
  352.07   14.47  370.50   14.84  337.79   14.17  339.58   14.21  359.20   14.62
  356.82   14.57  362.77   14.69  373.48   14.90  353.85   14.51  355.04   14.53
  362.77   14.69  318.17   13.76  360.39   14.64  350.28   14.43  355.04   14.53
  341.96   14.26  355.63   14.54  387.75   15.19  344.93   14.32  360.99   14.65
  353.26   14.49  380.02   15.03  381.80   15.07  374.07   14.92  425.81   15.91
  456.74   16.48  493.61   17.13  528.69   17.73  579.55   15.34  625.04   15.93
  719.26   17.09  778.15   17.78  858.32   22.91  960.42   24.23 1046.00   25.29
 1152.99   26.55 1291.76   28.10 1377.35   29.02 1410.36   29.36 1368.79   28.93
 1312.55   28.33 1138.32   26.38 1002.60   24.76  921.90   23.74  739.72   21.27
  659.64   20.08  597.28   19.11  533.70   18.06  453.00   16.64  422.44   16.07
  414.49   15.92  415.10   15.93  338.68   14.39  399.82   15.63  337.46   14.36
  345.41   14.53  339.29   14.40  377.20   15.19  366.80   14.97  346.02   14.54
  358.86   14.81  355.80   14.75  353.97   14.71  406.54   15.76  367.42   14.99
  410.21   15.84  439.55   16.39  440.17   16.40  463.40   16.83  514.14   17.73
  523.92   17.90  532.48   18.04  607.67   19.27  552.04   18.37  544.09   18.24
  509.25   17.64  506.19   17.59  456.06   16.70  460.95   16.79  456.06   16.70
  400.43   15.65  393.23   12.63  390.39   12.58  380.26   12.42  397.69   12.70
  388.37   12.55  425.26   13.13  401.43   15.78  466.57   17.01  441.76   16.56
  479.60   17.25  530.48   18.14  562.74   18.69  621.06   19.63  629.13   19.76
  685.59   20.62  643.40   19.98  616.10   19.55  614.24   19.52  578.87   18.95
  503.18   17.67  510.00   17.79  477.12   17.21  423.14   16.20  380.95   15.37
  409.49   15.94  387.78   15.51  418.80   16.12  346.83   14.67  382.19   15.40
  372.89   15.21  334.42   14.40  314.56   13.97  361.72   14.98  344.97   14.63
  351.79   14.77  348.69   14.71  349.93   14.73  363.58   15.02  379.09   15.34
  365.44   15.06  361.10   14.97  367.92   15.11  354.89   14.84  380.33   15.36
  383.43   15.42  357.38   14.89  407.63   15.90  379.09   15.34  395.84   15.67
  441.76   16.56  456.65   16.83  501.32   17.64  518.69   17.94  509.38   17.78
  616.05   15.89  614.41   15.87  672.61   16.60  739.42   17.41  786.56   17.96
  845.17   18.61  839.06   22.49  883.06   23.07  871.61   22.92  861.36   22.79
  840.27   22.51  761.30   21.42  725.74   20.92  622.66   19.37  626.88   19.44
  559.37   18.36  520.80   17.72  524.41   17.78  521.40   17.73  484.03   17.08
  517.18   17.66  544.91   18.12  556.36   18.31  704.04   20.60  740.81   21.13
  779.99   21.68  819.17   22.22  836.05   22.45  851.12   22.65  795.06   21.89
  742.01   21.15  742.01   21.15  658.83   19.93  636.53   19.59  578.06   18.67
  551.54   18.23  519.59   17.70  484.03   17.08  444.85   16.38  462.33   16.69
  480.41   17.02  437.01   16.23  443.64   16.35  446.65   16.41  421.34   15.94
  431.59   16.13  434.00   16.17  449.67   16.46  456.30   16.58  435.20   16.20
  453.29   16.53  460.52   16.66  485.83   17.11  516.54   14.30  569.22   15.02
  623.09   15.71  647.65   16.02  788.27   17.67  896.81   18.85 1075.29   25.20
 1234.72   27.00 1389.43   28.64 1510.48   29.87 1710.66   31.78 1787.42   32.49
 1881.31   33.33 1757.90   32.22 1750.81   32.15 1599.06   30.73 1459.11   29.35
 1302.63   27.73 1137.29   25.91  951.28   23.70  824.92   22.07  724.53   20.68
  650.13   19.59  562.74   18.23  497.79   17.14  468.85   16.64  421.02   15.77
  411.57   15.59  393.27   15.24  337.76   14.12  369.65   14.77  379.10   14.96
  341.90   14.21  359.02   14.56  346.62   14.31  358.43   14.55  363.15   14.64
  354.89   14.48  372.60   14.83  374.96   14.88  317.09   13.68  339.53   14.16
  335.99   14.09  347.21   14.32  364.92   14.68  341.30   14.20  355.48   14.49
  340.12   14.17  325.95   13.87  346.03   14.29  344.26   14.26  356.07   14.50
  334.22   14.05  363.15   14.64  335.99   14.09  329.49   11.40  350.38   11.75
  359.05   11.90  357.87   11.88  347.23   11.70  326.46   13.82  360.98   14.53
  367.41   14.66  346.94   14.25  345.77   14.22  355.71   14.43  357.47   14.46
  350.45   14.32  346.35   14.23  339.92   14.10  370.34   14.72  359.22   14.50
  333.48   13.97  350.45   14.32  340.50   14.11  362.73   14.57  364.49   14.60
  340.50   14.11  341.09   14.13  383.79   14.98  410.71   15.50  394.91   15.20
  425.92   15.79  415.97   15.60  433.52   15.93  461.61   16.43  534.74   17.69
  570.43   18.27  577.45   18.38  670.47   19.81  764.08   21.14  893.96   22.87
  997.51   24.16 1193.51   26.42 1315.20   27.74 1423.43   28.86 1514.70   29.77
 1630.54   30.89 1703.67   31.57 1640.49   30.98 1603.04   30.62 1607.72   30.67
 1492.47   29.55 1346.20   28.06 1270.15   27.26 1115.11   25.54  968.26   23.80
  882.26   22.72  735.48   17.10  689.34   16.56  650.36   16.08  584.33   15.25
  562.05   14.95  554.44   18.34  561.72   18.46  573.86   18.66  630.88   19.56
  623.60   19.45  687.90   20.43  701.24   20.62  673.95   20.22  687.90   20.43
  650.29   19.86  646.65   19.81  610.86   19.25  596.30   19.02  550.80   18.28
  576.89   18.71  481.04   17.08  448.89   16.50  452.53   16.57  451.93   16.56
  405.82   15.69  396.72   15.51  357.90   14.73  371.25   15.01  357.29   14.72
  328.78   14.12  364.57   14.87  354.87   14.67  363.97   14.86  360.93   14.80
  368.21   14.95  351.84   14.61  340.92   14.38  351.23   14.60  360.93   14.80
  376.71   15.12  368.21   14.95  360.93   14.80  363.36   14.85  374.28   15.07
  397.33   15.53  407.64   15.73  419.78   15.96  434.94   16.24  444.65   16.42
  473.16   16.94  487.72   17.20  546.56   18.21  575.07   18.68  643.01   19.75
  710.95   20.77  769.83   17.60  941.18   19.46 1038.11   20.43 1129.01   21.31
 1238.81   22.32 1319.33   28.34 1420.40   29.41 1341.25   28.58 1415.53   29.36
 1340.03   28.56 1316.89   28.32 1206.70   27.10 1069.71   25.52  931.51   23.81
  931.51   23.81  776.86   21.75  700.15   20.65  639.27   19.73  606.39   19.21
  503.50   17.51  465.14   16.83  421.92   16.03  418.87   15.97  410.96   15.82
  392.69   15.46  398.78   15.58  381.74   15.25  376.26   15.14  379.91   15.21
  357.38   14.75  378.69   15.18  372.60   15.06  405.48   15.71  386.00   15.33
  409.74   15.79  428.01   16.14  469.41   16.91  446.88   16.49  512.02   17.66
  528.46   17.94  569.86   18.63  581.43   18.81  614.92   19.35  635.01   19.66
  644.75   19.81  664.84   20.12  664.23   20.11  709.89   20.79  657.53   20.01
  715.98   20.88  662.40   20.08  704.41   20.71  651.45   19.92  649.62   19.89
  699.56   16.65  684.11   16.47  717.40   16.86  769.32   17.46  832.24   22.01
  909.65   23.01 1034.77   24.54 1104.03   25.35 1127.89   25.62 1250.69   26.98
 1249.53   26.97 1248.36   26.95 1267.57   27.16 1229.74   26.75 1165.72   26.05
 1158.16   25.96 1088.90   25.17 1037.68   24.57  943.40   23.43  878.22   22.61
  760.66   21.04  739.12   20.74  683.25   19.94  611.09   18.86  580.82   18.39
  540.67   17.74  491.78   16.92  451.04   16.20  449.88   16.18  403.90   15.33
  394.01   15.14  377.71   14.83  364.91   14.57  365.49   14.58  370.73   14.69
  356.18   14.40  354.43   14.36  370.14   14.68  366.65   14.61  394.59   15.15
  367.23   14.62  367.23   14.62  380.62   14.88  400.99   15.28  374.80   14.77
  410.88   15.46  391.68   15.10  415.54   15.55  439.98   16.00  434.16   15.90
  462.10   16.40  476.65   16.66  478.39   16.69  515.64   17.32  576.16   15.16
  519.54   14.39  596.49   15.42  580.14   15.21  584.53   15.27  581.95   18.67
  598.71   18.93  574.76   18.55  592.73   18.84  547.82   18.11  547.22   18.10
  522.08   17.68  529.26   17.80  550.82   18.16  529.86   17.81  541.24   18.00
  597.52   18.91  639.43   19.57  643.02   19.62  695.11   20.40  792.70   21.79
  824.43   22.22  913.64   23.39  987.88   24.32 1147.73   26.21 1270.47   27.58
 1515.34   30.12 1671.01   31.63 1908.10   33.80 2087.71   35.35 2374.49   37.70
 2491.24   38.62 2643.32   39.78 2813.95   41.05 2769.05   40.72 2781.02   40.80
 2767.85   40.71 2607.39   39.51 2512.80   38.79 2377.49   37.73 2047.60   35.01
 1830.86   33.11 1691.36   31.82 1430.32   29.26 1253.11   27.39 1104.63   25.72
  944.77   23.78  862.15   22.72  761.56   21.35  657.39   19.84  598.71   18.93
  546.62   18.09  493.34   17.19  449.63   16.41  435.00   13.37  395.97   12.75
  393.92   12.72  391.87   12.69  396.39   12.76  416.34   16.37  420.85   16.46
  416.34   16.37  425.35   16.54  477.48   17.53  490.99   17.78  518.02   18.26
  494.85   17.84  510.94   18.13  569.50   19.14  559.85   18.98  561.13   19.00
  557.92   18.95  600.39   19.66  575.29   19.24  565.64   19.08  545.69   18.74
  502.57   17.98  512.87   18.17  501.93   17.97  487.77   17.72  516.09   18.22
  481.98   17.61  407.98   16.20  418.92   16.42  426.00   16.56  392.54   15.89
  366.15   15.35  395.75   15.96  382.88   15.70  361.00   15.24  395.75   15.96
  353.28   15.08  402.19   16.09  350.06   15.01  386.74   15.78  379.02   15.62
  388.67   15.81  351.35   15.04  375.80   15.55  383.53   15.71  397.68   16.00
  397.68   16.00  387.39   15.79  409.27   16.23  426.00   16.56  449.81   17.01
  464.61   17.29  479.68   14.10  506.63   14.49  531.09   14.84  553.07   15.14
  589.97   15.64  622.72   16.07  611.50   19.42  653.41   20.07  643.55   19.92
  610.88   19.41  686.08   20.57  658.96   20.15  655.88   20.11  640.47   19.87
  651.56   20.04  619.51   19.54  609.65   19.39  591.77   19.10  589.92   19.07
  591.77   19.10  563.42   18.64  565.26   18.67  570.81   18.76  560.95   18.60
  584.99   18.99  621.98   19.58  634.92   19.78  687.93   20.59  760.67   21.65
  769.92   21.79  893.82   23.47 1023.27   25.12 1100.94   26.05 1238.40   27.63
 1331.48   28.65 1419.02   29.58 1483.13   30.24 1562.64   31.04 1592.23   31.33
 1606.41   31.47 1691.48   32.29 1650.18   31.89 1647.71   31.87 1575.59   31.16
 1541.69   30.83 1410.39   29.49 1377.10   29.14 1211.28   27.33 1107.72   26.13
 1036.83   25.28  967.18   24.42  835.88   22.70  790.26   22.07  758.21   21.62
  680.54   20.48  670.09   16.42  601.71   15.56  610.56   15.67  551.84   14.90
  551.03   14.89  558.07   18.00  529.04   17.53  489.55   16.86  480.84   16.71
  485.48   16.79  537.75   17.67  548.78   17.85  564.46   18.11  556.33   17.97
  612.66   18.86  624.27   19.04  706.16   20.25  758.42   20.99  756.10   20.95
  838.56   22.07  849.59   22.21  925.67   23.19  938.44   23.34  961.09   23.62
  988.39   23.96  966.90   23.70  922.76   23.15  995.93   24.05  935.54   23.31
  894.31   22.79  871.08   22.49  857.14   22.31  821.14   21.84  775.84   21.23
  739.26   20.72  650.41   19.43  665.51   19.66  598.72   18.65  547.62   17.83
  512.20   17.25  476.77   16.64  474.45   16.60  451.22   16.19  450.06   16.17
  403.02   15.30  392.57   15.10  370.50   14.67  373.98   14.74  368.76   14.63
  367.60   14.61  343.79   14.13  382.11   14.90  382.69   14.91  352.50   14.31
  355.02   11.70  380.07   12.10  361.57   11.81  363.88   11.84  390.50   15.00
  374.37   14.68  418.14   15.52  407.20   15.31  395.10   15.09  408.93   15.35
  423.33   15.61  448.09   16.06  450.97   16.12  450.97   16.12  490.71   16.81
  499.93   16.97  505.69   17.07  529.88   17.47  600.14   18.59  592.08   18.47
  623.76   18.95  723.97   20.42  751.04   20.80  800.58   21.47  843.20   22.04
  922.68   23.05  985.46   23.82  958.96   23.50 1024.05   24.29 1026.35   24.31
 1073.58   24.87 1081.07   24.95 1121.38   25.41 1153.64   25.78 1077.03   24.91
 1110.44   25.29 1064.94   24.77  980.27   23.76  954.36   23.44  886.39   22.59
  839.16   21.98  804.61   21.53  759.68   20.92  691.72   19.96  635.28   19.13
  598.42   18.57  559.25   17.95  548.31   17.77  542.55   17.68  502.81   17.02
  506.26   17.08  495.90   16.90  497.05   16.92  489.09   14.09  511.82   14.41
  517.10   14.49  512.63   14.42  531.30   14.68  593.00   15.51  625.72   19.78
  603.84   19.43  679.48   20.61  710.11   21.07  750.12   21.65  797.00   22.32
  882.64   23.49  911.39   23.87  946.40   24.32  978.90   24.74 1022.03   25.28
 1050.16   25.62 1093.30   26.14 1183.93   27.20 1088.92   26.09 1099.55   26.22
 1083.92   26.03 1071.42   25.88 1073.29   25.90 1040.16   25.50  973.28   24.67
  963.28   24.54  936.40   24.19  920.14   23.98  883.26   23.50  825.13   22.71
  871.39   23.34  830.13   22.78  854.51   23.11  835.13   22.85  876.39   23.41
  894.51   23.65  947.02   24.33  968.90   24.61 1005.78   25.07 1022.66   25.28
 1088.30   26.08 1131.43   26.59 1165.81   27.00 1226.44   27.69 1222.07   27.64
 1202.06   27.41 1222.07   27.64 1241.44   27.86 1233.32   27.77 1233.94   27.77
 1215.81   27.57 1204.56   27.44 1104.55   26.28 1064.54   25.80 1014.53   25.18
  939.52   24.23  888.89   23.57  828.25   22.75  734.02   31.76  608.93   28.93
  628.18   29.38  606.19   28.87  603.44   28.80  530.58   27.01  595.19   28.60
  465.98   25.31  457.73   25.08  435.74   24.47  434.36   24.43  419.24   24.01
  419.24   24.01  420.62   24.05  441.24   24.63  412.37   23.81  435.74   24.47
  404.12   23.57  371.13   22.59  412.37   23.81  379.38   22.84  428.87   24.28
  376.63   22.75  405.50   23.61  416.49   23.93  459.11   25.12  492.10   26.01
  463.23   25.23  463.23   25.23  496.22   26.12  490.72   25.97  504.47   26.33
  541.58   27.28  443.99   24.70  529.21   26.97  529.21   26.97  533.33   27.08
  525.09   26.87  509.97   26.48  574.57   28.10  533.33   27.08  544.33   27.35
  537.46   27.18  559.45   27.73  507.22   26.40  511.34   26.51  501.72   26.26
  489.35   25.94  483.85   25.79  511.34   26.51  508.59   26.44  434.36   24.43
  463.23   25.23                                                                