                                                                                
BANK 1 2431 487 CONST  602.500    5.000 0 0 ESD                                 
  480.00   23.34  531.06   24.55  525.39   24.42  523.12   24.36  525.39   24.42
  518.58   24.26  500.43   23.83  528.79   24.50  512.91   24.13  514.04   24.15
  494.75   23.69  529.93   24.52  489.08   23.56  539.01   24.73  484.54   23.45
  503.83   23.91  536.74   24.68  516.31   24.21  498.16   23.78  485.67   23.48
  515.18   24.18  494.75   23.69  500.43   23.83  537.87   24.71  475.46   23.23
  489.08   23.56  498.16   23.78  502.70   23.88  489.08   23.56  489.08   23.56
  534.47   24.63  527.66   24.47  501.56   23.86  508.37   24.02  476.60   23.26
  532.20   24.57  491.35   23.61  501.56   23.86  501.56   23.86  518.58   24.26
  466.38   23.00  487.94   23.53  512.91   24.13  507.23   23.99  476.60   23.26
  485.67   23.48  487.94   23.53  484.54   23.45  465.25   22.98  469.79   23.09
  491.35   23.61  499.29   23.80  480.43   16.48  497.95   16.78  500.78   16.82
  492.30   16.68  485.52   16.57  491.17   16.66  488.91   16.62  525.08   17.23
  495.13   16.73  518.30   17.12  505.86   16.91  520.56   17.15  482.69   16.52
  500.21   16.81  503.04   16.86  508.69   16.96  521.69   17.17  506.43   16.92
  509.26   16.97  445.39   15.87  484.39   16.55  473.65   16.36  505.86   16.91
  472.52   16.34  478.73   16.45  469.13   16.28  503.04   16.86  492.86   16.69
  509.26   16.97  495.13   16.73  495.13   16.73  528.47   17.28  491.17   16.66
  481.56   16.50  506.43   16.92  477.04   16.42  496.82   16.76  480.43   16.48
  468.56   16.27  496.82   16.76  454.43   16.03  444.82   15.86  457.82   16.09
  458.39   16.10  505.30   16.90  505.30   16.90  467.43   16.25  455.00   16.04
  484.39   16.55  475.91   16.40  479.30   16.46  465.17   16.21  432.39   15.63
  478.24   13.35  461.84   13.12  467.06   13.19  471.53   13.26  476.75   13.33
  489.42   13.51  476.75   13.33  473.39   13.28  441.30   15.65  481.27   16.34
  489.04   16.48  466.83   16.10  473.49   16.21  486.26   16.43  488.48   16.47
  480.16   16.33  481.27   16.34  494.03   16.56  451.29   15.83  469.05   16.14
  500.69   16.67  474.05   16.22  462.95   16.03  476.82   16.27  479.05   16.31
  469.61   16.15  471.27   16.17  474.60   16.23  468.50   16.13  486.82   16.44
  467.94   16.12  484.04   16.39  449.07   15.79  481.82   16.35  461.28   16.00
  469.05   16.14  470.16   16.16  470.16   16.16  464.06   16.05  454.62   15.89
  474.60   16.23  469.05   16.14  434.64   15.53  454.07   15.88  469.05   16.14
  490.70   16.50  451.29   15.83  479.05   16.31  455.18   15.90  475.16   16.24
  472.94   16.20  463.50   16.04  473.49   16.21  467.39   16.11  481.27   16.34
  463.51   13.12  464.62   13.14  480.59   13.36  494.34   13.55  496.19   13.58
  467.17   16.09  462.18   16.00  464.95   16.05  438.35   15.59  498.20   16.62
  445.00   15.70  452.20   15.83  473.82   16.20  468.27   16.11  463.29   16.02
  466.61   16.08  458.30   15.94  449.99   15.79  473.26   16.19  499.31   16.63
  485.45   16.40  445.55   15.71  461.07   15.98  441.67   15.64  433.92   15.51
  457.74   15.93  448.32   15.76  466.61   16.08  443.34   15.67  473.26   16.19
  442.78   15.66  457.74   15.93  453.87   15.86  476.03   16.24  442.78   15.66
  453.31   15.85  456.64   15.91  454.42   15.87  451.65   15.82  446.11   15.72
  473.82   16.20  460.52   15.98  474.92   16.22  461.07   15.98  463.29   16.02
  472.71   16.19  451.09   15.81  477.14   16.26  464.95   16.05  452.76   15.84
  451.09   15.81  456.64   15.91  477.69   16.27  442.78   15.66  440.57   15.63
  467.61   13.15  456.89   13.00  447.28   12.86  453.19   15.90  439.24   15.66
  452.07   15.88  466.58   16.14  435.89   15.60  505.09   16.79  461.00   16.04
  452.63   15.89  481.09   16.39  463.23   16.08  470.49   16.20  466.02   16.13
  462.12   16.06  482.77   16.41  467.14   16.15  457.10   15.97  487.23   16.49
  473.84   16.26  515.14   16.96  514.02   16.94  530.21   17.20  567.60   17.80
  517.37   16.99  557.00   17.63  605.55   18.38  642.95   18.94  701.55   19.79
  752.90   20.50  900.24   22.42 1009.07   23.73 1185.99   25.73 1439.37   28.34
 1732.38   31.09 2004.19   33.44 2255.34   35.48 2265.94   35.56 2135.34   34.52
 1799.36   31.69 1556.58   29.47 1178.18   25.64  844.43   21.71  605.00   18.38
  511.23   16.89  463.79   16.09  450.96   15.86  470.49   16.20  466.58   16.14
  455.98   15.95  461.56   16.05  440.91   15.69  459.33   16.01  449.72   13.17
  448.56   13.15  448.17   13.15  470.93   13.48  430.15   15.90  459.53   16.43
  472.45   16.66  471.87   16.65  452.48   16.31  463.64   16.51  511.83   17.34
  486.56   16.91  514.18   17.38  525.93   17.58  508.30   17.28  557.07   18.09
  644.63   19.46  678.71   19.97  736.89   20.81  856.77   22.44 1026.59   24.56
 1255.18   27.16 1521.96   29.91 1815.78   32.67 2090.20   35.05 2188.92   35.86
 2267.08   36.50 2054.94   34.75 1759.37   32.15 1397.97   28.66 1037.76   24.69
  763.92   21.19  604.08   18.84  479.51   16.79  446.60   16.20  413.69   15.59
  426.03   15.82  461.29   16.46  464.82   16.53  438.37   16.05  457.18   16.39
  447.19   16.21  434.85   15.99  451.30   16.28  436.61   16.02  382.55   14.99
  468.93   16.60  452.48   16.31  466.58   16.56  433.08   15.95  453.06   16.32
  488.32   16.94  451.89   16.30  458.99   13.49  444.31   13.28  452.25   13.39
  456.61   13.46  449.07   13.35  445.50   13.29  416.05   16.03  450.62   16.68
  456.79   16.79  474.07   17.11  490.12   17.39  443.21   16.54  437.04   16.42
  435.80   16.40  459.88   16.85  452.47   16.71  431.48   16.32  485.80   17.32
  494.44   17.47  538.89   18.24  509.26   17.73  541.98   18.29  575.93   18.85
  617.28   19.52  683.95   20.55  787.65   22.05  846.30   22.86  904.94   23.63
  909.26   23.69  835.80   22.71  770.37   21.81  671.60   20.36  604.94   19.32
  519.14   17.90  466.67   16.97  448.77   16.64  454.32   16.75  427.78   16.25
  456.17   16.78  454.94   16.76  461.73   16.88  479.01   17.20  423.46   16.17
  452.47   16.71  407.41   15.86  454.32   16.75  427.16   16.24  441.36   16.51
  471.60   17.06  432.72   16.34  478.40   17.18  419.75   16.10  435.19   16.39
  425.93   16.21  445.15   13.73  448.54   13.78  443.88   13.71  444.73   13.72
  482.42   14.29  438.37   13.63  451.28   17.01  447.44   16.94  463.46   17.24
  416.67   16.34  461.54   17.20  450.00   16.98  424.36   16.49  443.59   16.86
  418.59   16.38  453.21   17.04  439.10   16.78  454.49   17.07  422.44   16.46
  461.54   17.20  411.54   16.24  442.95   16.85  388.46   15.78  443.59   16.86
  433.97   16.68  439.74   16.79  461.54   17.20  459.62   17.16  384.62   15.70
  442.95   16.85  424.36   16.49  434.62   16.69  410.26   16.22  415.38   16.32
  456.41   17.10  441.03   16.81  450.64   17.00  418.59   16.38  442.31   16.84
  438.46   16.76  432.05   16.64  442.95   16.85  407.05   16.15  451.92   17.02
  449.36   16.97  414.74   16.31  437.82   16.75  392.31   15.86  448.72   16.96
  450.64   17.00  444.23   16.87  448.08   16.95  431.41   16.63  387.18   15.75
  417.95   16.37  434.54   13.39  434.54   13.39  442.79   13.52  437.02   13.43
  422.63   16.23  435.72   16.48  442.57   16.61  412.03   16.03  397.69   15.74
  413.90   16.06  423.87   16.25  454.42   16.83  413.90   16.06  436.34   16.49
  408.91   15.97  427.61   16.33  441.95   16.60  426.99   16.31  435.09   16.47
  407.04   15.93  408.29   15.95  438.83   16.54  434.47   16.46  424.50   16.27
  423.87   16.25  432.60   16.42  432.60   16.42  425.74   16.29  469.38   17.11
  428.24   16.34  413.90   16.06  437.59   16.52  456.91   16.88  410.16   15.99
  427.61   16.33  460.03   16.93  438.21   16.53  441.95   16.60  437.59   16.52
  433.22   16.43  430.11   16.37  481.85   17.33  397.69   15.74  428.86   16.35
  414.52   16.07  420.13   16.18  408.91   15.97  420.13   16.18  410.78   16.00
  443.20   16.62  426.37   16.30  425.74   16.29  407.67   15.94  423.38   13.10
  455.38   13.58  406.36   12.83  436.75   13.30  426.62   13.15  450.43   16.15
  456.22   16.25  440.01   15.96  448.69   16.12  455.06   16.23  419.74   15.59
  440.01   15.96  418.58   15.57  436.53   15.90  432.48   15.82  439.43   15.95
  441.74   15.99  413.95   15.48  396.58   15.15  449.27   16.13  423.22   15.65
  440.01   15.96  423.22   15.65  436.53   15.90  438.27   15.93  402.37   15.26
  388.48   15.00  406.43   15.34  442.32   16.00  424.95   15.69  414.53   15.49
  405.27   15.32  445.80   16.07  456.80   16.26  412.22   15.45  407.58   15.36
  431.90   15.81  400.64   15.23  437.69   15.92  423.22   15.65  399.48   15.21
  436.53   15.90  434.22   15.86  455.06   16.23  445.80   16.07  438.27   15.93
  410.48   15.42  453.32   16.20  401.22   15.24  431.32   15.80  409.90   15.40
  427.85   15.74  442.90   16.01  438.27   15.93  416.85   15.53  428.06   12.92
  404.64   12.57  427.28   12.91  437.03   13.06  410.50   12.66  426.60   15.84
  413.06   15.59  424.83   15.81  449.54   16.26  411.30   15.56  428.95   15.89
  414.83   15.62  436.60   16.03  424.83   15.81  388.94   15.13  432.48   15.95
  417.77   15.68  438.36   16.06  420.12   15.72  432.48   15.95  421.30   15.74
  416.59   15.66  430.71   15.92  408.94   15.51  433.07   15.96  426.01   15.83
  404.82   15.43  416.59   15.66  435.42   16.01  409.53   15.52  416.59   15.66
  474.85   16.72  480.14   16.81  526.04   17.59  588.41   18.61  751.99   21.04
  867.90   22.60 1054.43   24.91 1262.14   27.25 1366.28   28.35 1366.87   28.36
 1284.50   27.49 1133.27   25.82  943.81   23.57  734.33   20.79  580.17   18.48
  473.08   16.68  451.90   16.31  451.31   16.30  413.65   15.60  430.13   15.91
  438.95   16.07  418.36   15.69  433.95   12.98  414.92   12.70  413.75   12.68
  396.27   12.41  404.82   12.54  413.45   15.55  411.11   15.51  442.69   16.09
  413.45   15.55  385.96   15.02  435.67   15.96  419.30   15.66  445.61   16.14
  403.51   15.36  392.98   15.16  413.45   15.55  411.70   15.52  402.92   15.35
  429.24   15.84  408.77   15.46  433.92   15.93  453.80   16.29  433.33   15.92
  401.17   15.32  434.50   15.94  400.00   15.29  428.65   15.83  422.81   15.72
  392.40   15.15  392.40   15.15  420.47   15.68  437.43   15.99  422.81   15.72
  391.23   15.13  408.77   15.46  404.68   15.38  458.48   16.37  435.67   15.96
  447.95   16.19  423.39   15.74  446.78   16.16  460.23   16.41  477.19   16.71
  505.26   17.19  556.73   18.04  586.55   18.52  657.31   19.61  732.75   20.70
  764.91   21.15  883.63   22.73  935.09   23.38 1148.54   25.92 1369.01   28.29
 1748.54   31.98 2038.11   28.23 2269.91   29.79 2346.92   30.29 2236.69   29.57
 1891.92   27.19 1523.70   24.40 1199.25   26.38  862.57   22.38  646.64   19.37
  523.58   17.43  435.35   15.90  419.10   15.60  422.00   15.65  470.18   16.52
  442.90   16.03  451.60   16.19  441.74   16.01  467.86   16.48  434.77   15.89
  444.64   16.07  457.99   16.30  415.61   15.53  454.51   16.24  434.19   15.88
  487.59   16.82  505.59   17.13  618.20   18.94  754.03   20.92 1009.43   24.21
 1487.74   29.39 2350.31   36.94 3659.85   46.09 5685.68   57.45 8348.86   69.61
11480.48   81.6314152.37   90.6415512.41   94.8915233.20   94.0313203.31   87.54
10442.03   77.85 6960.96   63.57 4148.02   49.07 2329.42   36.77 1237.56   26.80
  756.93   20.96  523.00   17.42  515.45   17.30  488.17   16.83  469.60   16.51
  513.71   17.27  501.52   17.06  607.17   18.77  649.54   19.42  775.89   17.90
 1033.96   20.66 1332.09   23.45 1677.71   26.32 1947.77   28.36 2115.83   29.56
 2063.66   36.52 1900.79   35.05 1476.81   30.89 1212.47   27.99  849.25   23.43
  651.48   20.52  526.09   18.44  477.62   17.57  460.17   17.25  442.72   16.92
  465.34   17.34  418.81   16.45  444.01   16.94  424.62   16.57  425.92   16.59
  417.51   16.43  428.50   16.64  458.88   17.22  426.56   16.60  411.70   16.31
  442.72   16.92  448.54   17.03  469.22   17.41  495.72   17.90  501.53   18.00
  533.20   18.56  542.90   18.73  561.00   19.04  574.57   19.27  585.56   19.45
  573.28   19.25  517.69   18.29  498.30   17.95  478.27   17.58  483.44   17.68
  426.56   16.60  460.82   17.26  412.34   16.32  426.56   16.60  387.78   15.83
  456.94   17.18  427.86   16.63  426.56   16.60  420.75   16.49  418.16   16.44
  402.00   16.12  416.87   16.41  409.11   16.26  403.30   16.14  423.63   13.32
  413.16   13.16  410.64   13.12  412.74   13.15  419.86   13.26  381.60   15.75
  398.50   16.10  422.56   16.57  432.31   16.76  401.76   16.16  398.50   16.10
  392.65   15.98  406.31   16.25  427.76   16.68  401.11   16.15  408.91   16.30
  404.36   16.21  418.01   16.48  382.90   15.78  371.20   15.53  411.51   16.36
  397.20   16.07  393.30   15.99  410.21   16.33  402.41   16.17  408.26   16.29
  362.10   15.34  373.15   15.58  402.41   16.17  395.25   16.03  426.46   16.65
  396.55   16.06  393.30   15.99  426.46   16.65  377.70   15.67  387.45   15.87
  380.95   15.74  366.00   15.43  411.51   16.36  392.65   15.98  397.85   16.08
  393.95   16.00  370.55   15.52  379.65   15.71  431.66   16.75  393.95   16.00
  416.71   16.46  378.35   15.68  398.50   16.10  373.15   15.58  394.60   16.02
  429.71   16.71  405.01   16.23  425.16   16.63  380.65   12.75  409.27   13.22
  393.46   12.97  396.88   13.02  414.19   15.88  399.57   15.60  384.35   15.30
  389.83   15.41  365.46   14.92  391.05   15.43  390.44   15.42  391.05   15.43
  379.47   15.20  359.98   14.81  392.87   15.47  372.16   15.06  390.44   15.42
  379.47   15.20  367.29   14.96  393.48   15.48  384.96   15.31  398.36   15.58
  384.35   15.30  389.22   15.40  391.66   15.45  382.52   15.26  388.61   15.39
  379.47   15.20  381.91   15.25  392.87   15.47  382.52   15.26  379.47   15.20
  384.35   15.30  407.49   15.75  397.14   15.55  380.08   15.22  402.62   15.66
  435.51   16.29  445.26   16.47  493.38   17.34  562.20   18.51  603.62   19.17
  707.17   20.75  846.66   22.71  864.93   22.95  886.25   23.23  791.23   21.95
  749.81   21.37  629.21   19.58  531.14   17.99  495.81   17.38  440.99   16.39
  417.24   15.94  413.58   15.87  397.24   12.61  392.84   12.54  408.44   12.78
  393.64   12.55  392.44   12.53  383.62   15.20  414.33   15.80  425.78   16.01
  404.70   15.61  470.94   16.84  457.09   16.59  576.93   18.64  665.46   20.02
  924.42   23.59 1292.38   27.90 1574.83   30.80 1945.20   34.23 2233.66   36.68
 2350.50   37.62 2143.93   35.93 1769.35   32.64 1431.50   29.36  994.28   24.47
  738.33   21.09  566.70   18.47  497.44   17.31  443.84   16.35  404.70   15.61
  380.61   15.14  376.39   15.06  370.37   14.93  388.44   15.29  398.68   15.49
  394.46   15.41  372.78   14.98  376.99   15.07  371.57   14.96  376.99   15.07
  356.52   14.65  385.43   15.24  375.19   15.03  403.49   15.59  376.99   15.07
  373.98   15.01  415.54   15.82  389.04   15.31  383.02   15.19  369.77   14.92
  355.92   14.64  399.88   15.52  381.81   15.16  372.78   14.98  380.01   15.13
  384.82   15.22  364.08   12.22  395.24   12.73  371.05   12.33  378.02   12.45
  395.24   12.73  389.25   15.42  400.86   15.65  387.41   15.39  386.19   15.36
  382.52   15.29  403.91   15.71  394.74   15.53  403.91   15.71  424.69   16.11
  457.07   16.71  503.51   17.54  549.34   18.32  545.68   18.26  617.17   19.42
  711.27   20.85  890.31   23.32 1091.96   25.83 1564.93   30.92 2074.55   35.60
 2868.32   41.87 3487.93   46.17 3858.85   48.56 3905.29   48.85 3589.37   46.83
 2846.93   41.71 2206.54   36.72 1565.54   30.93 1077.91   25.66  752.22   21.44
  585.40   18.91  482.74   17.18  431.41   16.24  420.41   16.03  398.41   15.60
  389.25   15.42  367.25   14.98  375.19   15.14  386.19   15.36  392.30   15.48
  436.30   16.33  384.36   15.33  392.30   15.48  376.41   15.17  386.19   15.36
  372.75   15.09  377.02   15.18  390.47   15.45  387.41   15.39  391.08   15.46
  376.32   12.43  376.32   12.43  373.04   12.37  364.01   12.22  396.43   12.75
  395.88   15.84  385.11   15.62  397.78   15.87  418.05   16.27  444.02   16.77
  514.33   18.05  617.58   19.78  736.03   21.59 1024.23   25.47 1290.89   28.59
 1518.92   31.02 1739.98   33.20 1779.89   33.58 1695.01   32.77 1462.55   30.44
 1187.02   27.42  922.25   24.17  662.55   20.49  528.27   18.29  433.89   16.58
  411.08   16.14  399.05   15.90  387.65   15.67  367.38   15.25  399.68   15.91
  374.35   15.40  375.61   15.42  403.48   15.99  413.62   16.19  366.75   15.24
  447.19   16.83  474.43   17.34  458.59   17.04  502.30   17.84  525.73   18.25
  582.74   19.21  573.87   19.07  561.20   18.85  496.60   17.74  494.06   17.69
  452.89   16.94  436.42   16.63  445.92   16.81  419.95   16.31  381.31   15.54
  373.71   15.39  381.95   15.55  389.55   15.71  352.18   14.94  385.09   12.90
  390.28   12.99  408.00   13.28  385.52   12.91  374.28   12.72  386.26   15.86
  345.87   15.01  373.88   15.61  396.03   16.06  391.47   15.97  365.41   15.43
  396.68   16.07  399.28   16.13  400.59   16.15  403.84   16.22  375.18   15.63
  382.35   15.78  360.85   15.33  384.30   15.82  388.86   15.92  399.28   16.13
  351.08   15.12  406.45   16.27  414.92   16.44  369.97   15.52  388.86   15.92
  340.66   14.90  382.35   15.78  372.58   15.58  393.42   16.01  410.36   16.35
  394.07   16.02  399.28   16.13  384.30   15.82  386.26   15.86  388.86   15.92
  401.89   16.18  381.70   15.77  405.80   16.26  442.92   16.99  522.39   18.45
  547.14   18.88  595.99   19.70  638.98   20.40  662.43   20.77  634.42   20.33
  599.90   19.77  554.31   19.00  545.19   18.84  482.01   17.72  405.80   16.26
  405.80   16.26  422.08   16.58  392.12   15.98  381.01   12.75  394.67   12.98
  362.67   12.44  365.65   12.49  386.13   12.84  382.25   15.74  379.66   15.68
  388.73   15.87  402.33   16.15  397.80   16.05  423.06   16.56  397.80   16.05
  409.46   16.29  387.43   15.84  369.29   15.47  391.97   15.94  414.64   16.39
  391.32   15.92  373.83   15.56  373.18   15.55  367.99   15.44  377.71   15.64
  380.30   15.70  384.84   15.79  374.47   15.58  398.45   16.07  433.43   16.76
  468.42   17.42  529.96   18.53  622.61   20.08  656.95   20.63  776.16   22.42
  781.99   22.51  767.09   22.29  796.24   22.71  692.58   21.18  663.43   20.73
  594.75   19.63  556.53   18.99  518.30   18.32  510.53   18.19  520.25   18.36
  526.08   18.46  483.32   17.70  440.56   16.89  448.98   17.06  445.09   16.98
  440.56   16.89  470.36   17.46  464.53   17.35  511.82   18.21  579.85   19.38
  679.62   20.98  748.30   22.02  857.92   18.91  957.08   19.97 1007.50   20.49
 1075.00   21.16 1131.67   21.71 1307.51   28.02 1581.38   30.82 1951.95   34.24
 2585.59   39.41 3233.63   44.07 3732.73   47.35 3885.29   48.31 3678.08   47.00
 3299.10   44.51 2780.18   40.86 2054.05   35.12 1511.71   30.13 1047.45   25.08
  809.01   22.04  613.81   19.20  470.87   16.82  416.82   15.82  412.61   15.74
  383.78   15.18  378.98   15.09  391.59   15.34  396.40   15.43  391.59   15.34
  360.96   14.72  365.77   14.82  378.98   15.09  370.57   14.92  383.18   15.17
  403.60   15.57  372.37   14.95  390.99   15.32  385.59   15.22  383.78   15.18
  357.96   14.66  395.80   15.42  381.38   15.13  381.98   15.15  392.79   15.36
  440.24   16.26  482.88   17.03  531.53   17.87  605.41   19.07  723.12   20.84
  767.57   21.47  774.17   21.56  780.18   21.65  741.14   21.10  658.26   19.88
  590.93   15.47  520.45   14.52  489.67   14.08  439.85   13.35  405.02   12.81
  416.77   12.99  377.60   15.08  379.40   15.12  372.78   14.98  343.27   14.38
  371.57   14.96  352.91   14.58  366.15   14.85  367.96   14.89  357.72   14.68
  396.27   15.45  383.02   15.19  387.83   15.28  405.90   15.63  406.50   15.65
  422.16   15.94  576.33   18.63  616.68   19.27  807.59   22.05 1003.91   24.59
 1194.82   26.82 1411.62   29.16 1498.34   30.04 1613.37   31.17 1522.43   30.28
 1388.74   28.92 1126.17   26.04  923.82   23.59  721.47   20.84  587.17   18.80
  535.98   17.97  463.72   16.71  422.16   15.94  375.19   15.03  378.80   15.10
  366.15   14.85  362.54   14.78  378.20   15.09  386.63   15.26  361.94   14.76
  358.33   14.69  355.31   14.63  365.55   14.84  368.56   14.90  330.02   14.10
  355.31   14.63  381.21   15.15  366.76   14.86  343.87   14.39  385.72   12.53
  383.68   12.49  387.35   12.55  369.85   12.27  414.20   12.98  405.25   12.84
  406.56   15.93  400.31   15.81  439.03   16.56  415.93   16.12  436.53   16.51
  441.53   16.61  415.30   16.10  404.06   15.89  413.43   16.07  402.19   15.85
  377.21   15.35  380.95   15.42  388.45   15.58  384.07   15.49  373.46   15.27
  366.59   15.13  380.33   15.41  377.21   15.35  370.96   15.22  370.34   15.21
  365.96   15.12  341.61   14.61  376.58   15.34  379.08   15.39  367.21   15.14
  364.72   15.09  364.72   15.09  345.98   14.70  355.35   14.90  369.71   15.20
  382.20   15.45  365.96   15.12  363.47   15.07  400.31   15.81  378.45   15.37
  373.46   15.27  368.46   15.17  413.43   16.07  388.45   15.58  394.07   15.69
  380.33   15.41  418.42   16.17  430.91   16.40  465.89   17.06  525.21   18.11
  530.84   18.21  638.25   19.96  765.65   21.87  801.70   18.47  966.29   20.27
 1180.65   22.41 1473.26   25.03 1913.88   28.53 2359.02   39.05 2954.27   43.70
 3432.54   47.10 3689.77   48.83 3792.54   49.51 3359.51   46.60 2940.05   43.59
 2409.44   39.46 1825.17   34.35 1401.20   30.09 1058.01   26.15  805.95   22.82
  618.52   19.99  504.77   18.06  446.60   16.99  405.24   16.18  409.76   16.27
  382.61   15.73  387.14   15.82  370.33   15.47  392.31   15.92  379.38   15.66
  391.02   15.90  391.02   15.90  394.89   15.98  368.40   15.43  376.15   15.59
  349.65   15.03  371.63   15.50  383.91   15.75  352.24   15.09  383.26   15.74
  369.69   15.46  362.58   15.31  380.03   15.67  376.80   15.61  403.30   16.14
  361.29   15.28  360.64   15.27  394.25   15.96  354.82   15.14  349.01   15.02
  342.54   14.88  369.04   15.44  351.59   15.07  365.81   15.38  381.97   15.71
  367.10   15.40  381.97   15.71  394.35   13.30  401.08   13.41  386.72   13.17
  406.91   13.51  438.76   14.03  480.53   18.32  499.39   18.68  537.10   19.37
  606.25   20.58  778.07   23.31  957.57   25.86 1202.03   28.97 1493.28   32.30
 1815.26   35.61 1917.23   36.59 2015.72   37.52 1895.58   36.39 1771.96   35.18
 1535.18   32.75 1324.95   30.42 1104.94   27.78  925.44   25.42  779.47   23.33
  678.89   21.78  641.87   21.17  588.79   20.28  519.64   19.05  522.44   19.10
  457.48   17.88  425.35   17.24  438.62   17.50  398.11   16.68  401.61   16.75
  382.75   16.35  405.80   16.84  383.45   16.37  393.92   16.59  402.30   16.76
  359.70   15.85  387.64   16.45  370.87   16.09  375.07   16.19  387.64   16.45
  371.57   16.11  409.99   16.92  364.59   15.96  390.43   16.51  395.32   16.62
  409.29   16.91  447.01   17.67  390.43   16.51  396.02   16.63  440.02   17.53
  451.20   17.75  467.96   18.08  479.33   14.52  514.07   15.04  559.81   15.69
  629.29   16.64  737.53   22.00  900.26   24.30 1172.57   27.74 1408.79   30.40
 1782.15   34.20 2116.14   37.26 2400.92   39.69 2624.67   41.50 2662.07   41.79
 2419.95   39.85 2123.36   37.33 1786.09   34.23 1429.13   30.62 1244.75   28.58
  964.57   25.16  739.50   22.03  643.70   20.55  578.08   19.48  568.24   19.31
  551.84   19.03  607.61   19.97  680.45   21.13  830.05   23.34 1108.27   26.97
 1389.76   30.20 1765.09   34.03 2356.30   39.32 2845.80   43.21 3389.76   47.16
 3684.38   49.17 3876.64   50.44 3668.64   49.06 3259.19   46.24 2800.52   42.87
 2312.99   38.96 1898.29   35.29 1484.91   31.21 1288.71   29.08 1174.54   27.76
 1135.17   27.29 1069.55   26.49 1058.40   26.35 1015.75   25.82 1076.77   26.58
 1005.91   25.69  911.42   24.45  830.71   23.35  782.81   22.66  668.64   20.95
  609.07   16.18  549.75   15.37  468.94   14.20  430.69   13.61  417.37   13.39
  411.61   15.82  408.57   15.76  421.34   16.01  406.75   15.73  448.70   16.52
  445.05   16.45  552.06   18.32  592.80   18.98  641.43   19.75  701.02   20.64
  804.99   22.12  838.43   22.58  832.35   22.50  840.25   22.60  774.59   21.70
  715.00   20.85  627.45   19.53  551.45   18.31  492.48   17.30  445.66   16.46
  446.88   16.48  426.81   16.11  366.01   14.92  392.16   15.44  381.82   15.24
  380.00   15.20  358.72   14.77  354.46   14.68  355.07   14.69  356.29   14.72
  357.50   14.74  372.70   15.05  375.74   15.11  378.78   15.18  391.55   15.43
  359.33   14.78  353.25   14.66  347.17   14.53  375.13   15.10  359.93   14.79
  342.30   14.43  357.50   14.74  342.91   14.44  363.58   14.87  383.64   15.27
  378.78   15.18  348.99   14.57  382.43   15.25  374.53   15.09  352.05   11.94
  378.35   12.37  369.85   12.23  392.11   12.60  373.90   12.30  384.02   12.47
  393.49   15.54  374.46   15.16  356.05   14.78  376.30   15.20  381.22   15.30
  364.03   14.95  386.13   15.40  373.85   15.15  349.91   14.66  359.12   14.85
  361.57   14.90  360.96   14.89  394.11   15.55  395.33   15.58  387.97   15.43
  429.10   16.23  436.46   16.37  445.67   16.54  511.97   17.73  624.31   19.58
  647.02   19.93  782.69   21.92  861.88   23.00  876.61   23.20  918.97   23.75
  949.66   24.14  914.06   23.69  836.71   22.66  767.96   21.71  705.95   20.82
  636.59   19.77  564.76   18.62  529.16   18.02  508.90   17.67  463.47   16.87
  430.33   16.25  435.24   16.35  473.91   17.06  491.10   17.36  500.92   17.54
  547.58   18.33  544.51   18.28  578.27   18.84  538.98   18.19  527.93   18.00
  475.75   17.09  467.77   16.95  433.39   16.31  402.09   15.71  384.86   12.45
  412.24   12.88  381.64   12.40  372.38   12.24  367.53   14.78  384.78   15.13
  344.34   14.31  350.28   14.43  385.96   15.15  365.74   14.75  376.45   14.96
  348.50   14.40  346.71   14.36  358.61   14.60  353.85   14.51  366.34   14.76
  337.20   14.16  359.20   14.62  369.31   14.82  363.37   14.70  357.42   14.58
  340.17   14.22  335.41   14.12  362.77   14.69  340.77   14.24  356.82   14.57
  363.37   14.70  357.42   14.58  362.77   14.69  382.40   15.08  358.61   14.60
  371.69   14.87  362.77   14.69  335.41   14.12  323.52   13.87  327.09   13.95
  363.96   14.71  337.79   14.17  354.45   14.52  353.26   14.49  351.47   14.46
  375.26   14.94  356.82   14.57  332.44   14.06  364.56   14.72  369.91   14.83
  363.37   14.70  409.16   15.60  390.13   15.23  405.59   15.53  443.06   16.23
  471.01   16.74  485.28   16.99  547.13   18.04  614.07   15.79  651.03   16.26
  715.20   17.04  793.99   17.96  827.14   22.49  967.75   24.32 1053.95   25.38
 1182.33   26.89 1297.88   28.17 1343.73   28.66 1392.63   29.18 1333.94   28.56
 1246.52   27.61 1143.21   26.44 1044.78   25.27  849.15   22.78  765.40   21.63
  648.02   19.90  557.54   18.46  487.24   17.26  456.67   16.71  426.10   16.14
  397.37   15.59  385.76   15.36  355.80   14.75  369.25   15.02  380.25   15.25
  330.74   14.22  355.80   14.75  327.07   14.14  374.14   15.12  366.19   14.96
  353.97   14.71  338.68   14.39  372.31   15.09  380.25   15.25  386.98   15.38
  399.21   15.62  461.56   16.80  466.45   16.89  497.02   17.43  528.20   17.97
  528.20   17.97  586.89   18.94  562.43   18.54  547.15   18.29  524.53   17.91
  508.02   17.62  492.13   17.35  465.23   16.86  455.45   16.69  436.50   16.34
  408.99   15.81  412.69   12.93  414.31   12.96  405.39   12.82  383.10   12.46
  387.55   12.53  393.23   12.63  429.97   16.33  453.54   16.77  459.75   16.89
  500.08   17.61  511.25   17.81  574.53   18.88  576.39   18.91  681.87   20.57
  655.19   20.16  647.12   20.04  583.22   19.02  615.48   19.54  577.63   18.93
  548.47   18.45  494.49   17.52  455.41   16.81  471.54   17.10  407.63   15.90
  412.60   16.00  385.30   15.46  388.40   15.52  367.30   15.10  395.22   15.66
  362.34   14.99  369.16   15.13  361.10   14.97  350.55   14.75  351.17   14.76
  350.55   14.75  369.16   15.13  398.95   15.73  380.33   15.36  346.21   14.66
  349.93   14.73  354.89   14.84  346.83   14.67  371.65   15.19  402.05   15.79
  372.27   15.20  401.43   15.78  418.80   16.12  378.47   15.32  443.00   16.58
  454.79   16.80  486.43   17.37  476.50   17.19  567.71   18.77  587.56   19.09
  593.09   15.59  645.97   16.27  701.71   16.96  731.22   17.31  816.89   18.30
  853.78   18.71  858.95   22.75  921.04   23.56  879.45   23.02  895.72   23.24
  817.36   22.20  770.34   21.55  760.70   21.41  653.41   19.85  617.24   19.29
  552.74   18.25  517.78   17.67  544.91   18.12  536.47   17.98  514.77   17.61
  517.18   17.66  594.33   18.93  655.21   19.87  658.83   19.93  743.22   21.17
  801.08   21.97  829.42   22.36  874.62   22.96  869.20   22.89  777.58   21.65
  769.14   21.53  747.44   21.23  648.58   19.77  611.81   19.20  566.00   18.47
  540.08   18.04  493.67   17.25  478.00   16.97  433.39   16.16  411.69   15.75
  414.10   15.80  432.19   16.14  447.26   16.42  390.60   15.34  464.14   16.73
  484.03   17.08  487.04   17.13  446.05   16.40  473.18   16.89  464.14   16.73
  462.33   16.69  461.12   16.67  525.62   17.80  537.53   14.59  571.99   15.05
  591.01   15.30  720.93   16.90  783.52   17.62  951.48   19.41 1084.15   25.30
 1159.73   26.17 1366.99   28.41 1550.63   30.26 1702.98   31.71 1849.42   33.05
 1826.99   32.85 1790.37   32.51 1700.62   31.69 1574.84   30.49 1455.57   29.32
 1233.54   26.99 1104.81   25.54  981.40   24.07  787.72   21.57  697.37   20.29
  613.52   19.03  529.67   17.69  485.98   16.94  426.93   15.88  402.13   15.41
  388.54   15.15  379.10   14.96  369.65   14.77  351.34   14.40  371.42   14.81
  324.77   13.85  318.87   13.72  340.71   14.18  362.56   14.63  333.04   14.02
  331.86   14.00  370.24   14.79  366.70   14.72  327.13   13.90  348.98   14.36
  383.82   15.05  379.69   14.97  351.93   14.42  378.51   14.95  354.89   14.48
  334.81   14.06  356.66   14.51  370.83   14.80  358.43   14.55  353.11   14.44
  360.20   14.58  357.84   14.54  364.33   14.67  338.95   11.56  357.47   11.87
  368.12   12.05  353.53   11.80  357.47   11.87  359.81   14.51  352.20   14.35
  378.53   14.88  329.38   13.88  355.71   14.43  352.79   14.37  358.64   14.49
  345.77   14.22  359.22   14.50  360.39   14.52  336.40   14.03  358.05   14.47
  360.39   14.52  366.24   14.64  360.98   14.53  352.20   14.35  357.47   14.46
  356.30   14.44  358.64   14.49  416.56   15.61  383.21   14.97  370.34   14.72
  404.86   15.39  442.88   16.10  476.23   16.69  513.68   17.34  530.64   17.62
  570.43   18.27  626.01   19.14  699.72   20.23  764.66   21.15  882.26   22.72
 1031.45   24.57 1202.87   26.53 1350.88   28.11 1443.91   29.06 1563.84   30.25
 1613.57   30.72 1688.46   31.43 1688.46   31.43 1638.15   30.96 1555.07   30.16
 1418.75   28.81 1270.73   27.27 1182.39   26.30 1041.39   24.68  922.63   23.23
  855.35   22.37  777.65   17.59  688.54   16.55  654.73   16.14  587.51   15.29
  584.33   15.25  585.38   18.84  577.49   18.72  591.45   18.94  576.89   18.71
  633.91   19.61  652.11   19.89  694.57   20.53  675.77   20.25  656.35   19.95
  654.53   19.93  640.58   19.71  626.63   19.50  592.66   18.96  544.74   18.18
  500.45   17.42  474.37   16.96  475.58   16.99  447.68   16.48  430.69   16.16
  393.08   15.44  382.17   15.23  376.71   15.12  368.82   14.96  361.54   14.81
  383.99   15.26  369.43   14.97  368.82   14.96  354.26   14.66  373.07   15.04
  370.03   14.98  362.75   14.83  336.67   14.29  365.18   14.88  371.25   15.01
  371.85   15.02  361.54   14.81  353.05   14.63  375.49   15.09  367.61   14.93
  393.08   15.44  409.46   15.76  444.04   16.41  420.38   15.97  459.81   16.70
  491.36   17.26  518.05   17.73  560.51   18.44  597.51   19.04  668.49   20.14
  753.41   21.38  837.00   18.35  946.81   19.51 1065.86   20.71 1217.50   22.13
 1289.49   22.77 1335.77   28.52 1382.04   29.01 1396.04   29.15 1424.05   29.44
 1332.72   28.49 1269.41   27.80 1171.39   26.71 1026.48   25.00  988.13   24.53
  825.57   22.42  752.51   21.40  666.67   20.15  619.79   19.43  538.20   18.10
  529.68   17.96  463.93   16.81  438.36   16.34  435.31   16.28  386.00   15.33
  353.12   14.66  374.43   15.10  394.52   15.50  370.78   15.02  371.99   15.05
  392.09   15.45  376.86   15.15  404.87   15.70  387.82   15.37  409.74   15.79
  424.96   16.09  454.79   16.64  410.96   15.82  483.41   17.16  501.07   17.47
  544.90   18.21  562.56   18.51  578.39   18.77  605.18   19.19  647.79   19.86
  665.45   20.13  681.89   20.38  687.98   20.47  677.63   20.31  662.40   20.08
  668.49   20.17  658.75   20.03  673.97   20.26  669.71   20.19  663.62   20.10
  650.81   16.06  695.20   16.60  747.13   17.21  824.81   18.08  860.18   22.37
  962.61   23.67 1020.22   24.37 1106.94   25.38 1128.47   25.63 1161.65   26.00
 1215.77   26.60 1244.87   26.92 1202.97   26.46 1258.26   27.06 1175.61   26.16
 1108.69   25.40 1086.57   25.15 1019.64   24.36  928.85   23.25  837.48   22.08
  812.45   21.74  717.01   20.43  650.08   19.45  583.15   18.42  561.04   18.07
  509.24   17.22  457.44   16.32  490.62   16.90  459.19   16.35  406.81   15.39
  401.57   15.29  389.35   15.05  408.56   15.42  370.73   14.69  367.82   14.63
  375.38   14.78  382.95   14.93  384.69   14.96  366.07   14.60  374.80   14.77
  371.31   14.70  382.95   14.93  381.78   14.91  392.26   15.11  400.41   15.27
  406.81   15.39  403.32   15.32  416.12   15.56  436.49   15.94  469.08   16.52
  450.46   16.19  491.20   16.91  512.15   17.26  508.08   17.20  540.27   14.68
  561.40   14.96  579.74   15.20  584.13   15.26  610.85   15.61  607.09   19.07
  599.91   18.95  595.12   18.88  531.06   17.83  556.20   18.25  555.01   18.23
  537.64   17.94  531.66   17.84  549.62   18.14  551.41   18.17  565.18   18.40
  540.64   17.99  614.28   19.18  647.21   19.68  716.66   20.71  756.77   21.29
  815.45   22.10  918.43   23.45 1051.94   25.10 1122.59   25.93 1329.14   28.21
 1509.35   30.06 1755.43   32.42 2018.26   34.76 2260.74   36.79 2473.28   38.48
 2609.19   39.52 2810.96   41.02 2695.40   40.17 2770.84   40.73 2809.76   41.02
 2748.09   40.56 2557.70   39.13 2408.62   37.97 2293.07   37.05 2050.59   35.04
 1775.78   32.61 1570.42   30.66 1370.45   28.64 1185.45   26.64 1021.40   24.73
  871.13   22.84  800.48   21.89  742.40   21.08  613.68   19.17  560.40   18.32
  517.29   17.60  483.76   17.02  465.80   16.70  432.94   13.34  421.85   13.16
  396.39   12.76  412.82   13.02  396.39   12.76  418.28   16.41  420.85   16.46
  436.29   16.76  489.06   17.74  474.90   17.48  507.08   18.06  482.63   17.62
  512.87   18.17  540.54   18.65  541.83   18.67  558.56   18.96  562.42   19.02
  601.03   19.67  555.34   18.90  586.23   19.42  529.60   18.46  570.14   19.15
  507.08   18.06  514.16   18.19  487.77   17.72  476.83   17.52  449.81   17.01
  445.30   16.93  447.88   16.98  419.56   16.43  456.89   17.15  395.75   15.96
  393.18   15.91  400.26   16.05  424.07   16.52  323.04   14.42  362.93   15.28
  367.44   15.38  371.94   15.47  366.15   15.35  347.49   14.95  375.80   15.55
  409.27   16.23  386.10   15.76  398.33   16.01  415.70   16.36  391.25   15.87
  409.91   16.24  452.38   17.06  436.29   16.76  442.08   16.87  447.23   16.96
  480.05   17.58  501.66   14.42  517.41   14.65  548.09   15.07  582.09   15.53
  601.58   15.79  645.11   16.35  599.78   19.23  657.11   20.13  671.91   20.35
  663.89   20.23  653.41   20.07  686.08   20.57  656.50   20.12  651.56   20.04
  636.77   19.81  597.93   19.20  612.73   19.43  563.42   18.64  573.89   18.81
  544.31   18.32  570.81   18.76  578.83   18.89  610.26   19.40  562.18   18.62
  577.59   18.87  608.41   19.37  647.87   19.98  692.25   20.66  821.70   22.51
  864.23   23.08  893.82   23.47 1060.26   25.57 1140.39   26.51 1261.83   27.89
 1319.77   28.52 1452.30   29.92 1581.14   31.22 1544.15   30.85 1562.03   31.03
 1655.73   31.95 1581.14   31.22 1650.79   31.90 1635.38   31.75 1546.00   30.87
 1459.08   29.99 1355.52   28.91 1217.44   27.39 1179.23   26.96 1060.26   25.57
  935.12   24.01  877.18   23.25  807.52   22.31  785.95   22.01  702.11   20.80
  699.65   20.77  635.90   15.99  627.45   15.89  611.76   15.69  540.98   14.75
  504.78   14.25  546.46   17.81  499.42   17.03  471.54   16.55  525.55   17.47
  494.77   16.95  531.36   17.57  527.29   17.50  583.62   18.41  619.05   18.96
  620.21   18.98  656.79   19.53  706.16   20.25  760.16   21.01  806.04   21.64
  819.40   21.81  899.54   22.86  915.21   23.05  937.28   23.33  954.70   23.55
  939.02   23.35  929.73   23.24  982.00   23.88  979.09   23.84  984.90   23.92
  897.21   22.83  862.37   22.38  855.40   22.29  775.26   21.22  745.64   20.81
  663.76   19.63  621.37   19.00  602.79   18.71  590.01   18.51  520.91   17.39
  501.74   17.07  483.74   16.76  487.80   16.83  448.90   16.15  423.34   15.68
  400.70   15.25  382.69   14.91  382.69   14.91  364.11   14.54  373.40   14.73
  362.95   14.52  396.63   15.18  383.28   14.92  394.89   15.14  358.30   14.42
  385.47   12.19  355.79   11.71  360.41   11.79  366.58   11.89  395.68   15.10
  422.17   15.59  380.13   14.80  387.04   14.93  415.26   15.47  429.09   15.72
  399.71   15.17  456.16   16.21  444.64   16.00  460.19   16.28  468.25   16.42
  512.02   17.17  532.18   17.51  530.45   17.48  588.62   18.41  625.49   18.98
  665.80   19.58  706.70   20.17  753.92   20.84  832.25   21.89  862.20   22.28
  979.12   23.75 1022.32   24.27 1021.74   24.26 1100.07   25.17 1060.33   24.71
 1085.10   25.00 1124.26   25.45 1089.70   25.05 1143.27   25.66 1108.71   25.27
 1081.64   24.96 1018.86   24.22  943.99   23.32  937.08   23.23  873.15   22.43
  851.26   22.14  732.61   20.54  726.28   20.45  666.38   19.59  662.92   19.54
  572.50   18.16  530.45   17.48  524.12   17.37  532.18   17.51  516.05   17.24
  520.66   17.32  512.60   17.18  507.99   17.10  484.63   14.03  529.68   14.66
  496.80   14.20  504.52   14.31  561.75   15.10  573.52   15.26  602.59   19.41
  657.60   20.27  709.49   21.06  716.99   21.17  746.37   21.60  861.38   23.20
  907.64   23.82  913.27   23.89  937.02   24.20  983.90   24.80 1032.66   25.41
 1042.04   25.52 1048.91   25.61 1046.41   25.58 1097.67   26.19 1041.41   25.51
 1097.05   26.19 1103.30   26.26 1042.66   25.53  996.41   24.96  995.16   24.94
  970.78   24.63  883.89   23.51  907.02   23.81  849.51   23.04  831.38   22.80
  841.38   22.93  820.13   22.64  842.01   22.94  870.76   23.33  868.89   23.31
  875.14   23.39  916.39   23.93 1003.91   25.05  992.66   24.91 1110.17   26.34
 1166.43   27.00 1169.56   27.04 1222.69   27.65 1271.45   28.19 1262.07   28.09
 1230.19   27.73 1235.82   27.79 1245.82   27.91 1209.56   27.50 1229.57   27.72
 1115.80   26.41 1115.80   26.41 1015.16   25.19 1007.66   25.10  988.90   24.86
  846.38   23.00  843.88   22.97  731.99   21.39  721.65   31.50  652.92   29.96
  629.55   29.42  559.45   27.73  613.06   29.03  533.33   27.08  483.85   25.79
  475.60   25.57  453.61   24.97  405.50   23.61  406.87   23.65  420.62   24.05
  404.12   23.57  420.62   24.05  417.87   23.97  393.13   23.25  371.13   22.59
  402.75   23.53  383.51   22.96  390.38   23.16  380.76   22.88  423.37   24.12
  411.00   23.77  437.11   24.51  476.98   25.61  474.23   25.53  505.84   26.37
  461.86   25.20  504.47   26.33  547.08   27.42  518.21   26.69  547.08   27.42
  508.59   26.44  540.21   27.25  548.45   27.46  507.22   26.40  553.95   27.59
  545.70   27.39  599.31   28.70  581.44   28.27  509.97   26.48  596.56   28.64
  490.72   25.97  537.46   27.18  525.09   26.87  544.33   27.35  516.84   26.65
  586.94   28.40  501.72   26.26  493.47   26.04  434.36   24.43  471.48   25.46
  456.36   25.05                                                                