                                                                                
BANK 1 2431 487 CONST  602.500    5.000 0 0 ESD                                 
  524.26   24.39  519.72   24.28  524.26   24.39  493.62   23.67  502.70   23.88
  491.35   23.61  533.33   24.60  465.25   22.98  541.28   24.78  534.47   24.63
  524.26   24.39  516.31   24.21  493.62   23.67  498.16   23.78  486.81   23.50
  554.89   25.09  506.10   23.96  553.76   25.07  495.89   23.72  517.45   24.23
  569.65   25.42  501.56   23.86  558.30   25.17  498.16   23.78  506.10   23.96
  492.48   23.64  521.99   24.34  521.99   24.34  482.27   23.39  511.77   24.10
  531.06   24.55  518.58   24.26  500.43   23.83  498.16   23.78  455.04   22.72
  498.16   23.78  483.40   23.42  528.79   24.50  483.40   23.42  527.66   24.47
  498.16   23.78  477.73   23.28  527.66   24.47  523.12   24.36  487.94   23.53
  511.77   24.10  493.62   23.67  497.02   23.75  493.62   23.67  478.87   23.31
  484.54   23.45  485.67   23.48  515.47   17.07  502.47   16.85  520.56   17.15
  532.43   17.35  523.39   17.20  464.04   16.20  503.04   16.86  520.56   17.15
  488.91   16.62  498.52   16.79  496.26   16.75  488.91   16.62  493.99   16.71
  516.60   17.09  450.47   15.96  494.56   16.72  504.73   16.89  504.17   16.88
  514.91   17.06  522.26   17.18  496.82   16.76  480.99   16.49  500.78   16.82
  475.91   16.40  502.47   16.85  501.91   16.84  504.17   16.88  466.30   16.23
  512.65   17.02  486.65   16.58  492.30   16.68  486.08   16.58  468.56   16.27
  507.56   16.94  512.08   17.01  497.95   16.78  496.26   16.75  510.39   16.98
  478.73   16.45  447.08   15.90  470.26   16.30  468.56   16.27  489.47   16.63
  466.86   16.24  493.43   16.70  489.47   16.63  493.43   16.70  487.21   16.59
  465.17   16.21  475.34   16.39  464.60   16.20  476.47   16.41  488.34   16.61
  459.60   13.09  472.28   13.27  483.46   13.42  473.02   13.28  466.69   13.19
  462.21   13.13  434.26   12.72  472.28   13.27  460.17   15.98  450.18   15.81
  450.18   15.81  491.81   16.52  471.83   16.18  481.27   16.34  475.16   16.24
  461.84   16.01  480.16   16.33  474.60   16.23  474.60   16.23  459.62   15.97
  451.29   15.83  469.61   16.15  475.16   16.24  482.38   16.36  502.91   16.71
  469.05   16.14  467.94   16.12  484.04   16.39  468.50   16.13  479.60   16.32
  454.62   15.89  492.92   16.54  457.95   15.94  476.82   16.27  481.27   16.34
  468.50   16.13  472.94   16.20  489.04   16.48  472.38   16.19  450.18   15.81
  507.35   16.78  477.38   16.28  465.72   16.08  480.16   16.33  470.72   16.16
  486.82   16.44  471.83   16.18  447.96   15.77  474.05   16.22  467.39   16.11
  467.39   16.11  454.62   15.89  475.71   16.25  465.17   16.07  459.06   15.96
  470.19   13.21  487.28   13.45  479.48   13.34  430.08   12.64  441.60   12.81
  463.29   16.02  462.18   16.00  440.57   15.63  464.95   16.05  492.66   16.52
  442.78   15.66  454.42   15.87  441.67   15.64  451.65   15.82  461.07   15.98
  441.67   15.64  476.59   16.25  477.14   16.26  488.22   16.45  456.08   15.90
  494.32   16.55  459.96   15.97  476.03   16.24  438.90   15.60  453.31   15.85
  484.90   16.39  466.61   16.08  443.89   15.68  453.31   15.85  451.65   15.82
  459.96   15.97  466.61   16.08  454.97   15.88  478.80   16.29  462.73   16.01
  453.31   15.85  435.02   15.53  462.18   16.00  482.68   16.36  459.96   15.97
  473.26   16.19  428.93   15.42  482.68   16.36  436.13   15.55  442.78   15.66
  449.99   15.79  449.99   15.79  459.96   15.97  441.67   15.64  449.43   15.78
  458.30   15.94  453.87   15.86  440.01   15.62  430.04   15.44  446.66   15.73
  443.95   12.81  445.80   12.84  435.82   12.69  443.14   15.73  462.68   16.07
  453.75   15.91  457.65   15.98  445.37   15.77  446.49   15.79  447.61   15.81
  443.14   15.73  439.24   15.66  424.72   15.40  469.93   16.19  474.40   16.27
  460.44   16.03  454.86   15.93  504.53   16.78  461.56   16.05  467.70   16.16
  477.75   16.33  507.33   16.83  525.18   17.12  517.93   17.00  529.09   17.18
  558.67   17.66  555.32   17.60  624.53   18.67  671.41   19.36  693.74   19.68
  745.08   20.39  851.12   21.80 1007.95   23.72 1188.78   25.76 1432.68   28.28
 1651.46   30.36 1994.14   33.36 2182.78   34.90 2269.29   35.59 2175.53   34.85
 1942.79   32.93 1605.69   29.94 1204.97   25.93  884.61   22.22  657.46   19.16
  509.00   16.85  490.02   16.54  433.10   15.55  447.05   15.80  468.26   16.17
  467.14   16.15  442.03   15.71  460.44   16.03  445.93   15.78  458.97   13.30
  436.99   12.98  448.17   13.15  461.29   13.34  427.79   15.86  490.08   16.97
  468.34   16.59  443.66   16.15  447.19   16.21  437.20   16.03  460.70   16.45
  483.62   16.86  478.92   16.78  496.55   17.08  541.21   17.83  548.85   17.96
  594.09   18.68  636.40   19.34  743.35   20.90  856.18   22.43  978.99   23.99
 1195.83   26.51 1462.61   29.32 1734.68   31.93 2074.34   34.91 2271.78   36.54
 2220.07   36.12 2128.98   35.37 1792.27   32.45 1426.77   28.96 1063.61   25.00
  798.00   21.65  582.93   18.51  503.60   17.20  461.88   16.47  454.24   16.34
  475.39   16.71  442.49   16.13  432.50   15.94  451.89   16.30  457.76   16.40
  413.10   15.58  436.61   16.02  433.67   15.96  416.63   15.65  439.55   16.07
  462.47   16.49  448.36   16.23  424.86   15.80  440.14   16.08  431.32   15.92
  438.96   16.06  439.55   16.07  434.39   13.13  446.69   13.31  458.99   13.49
  450.66   13.37  461.77   13.53  459.78   13.51  463.58   16.92  432.72   16.34
  433.33   16.36  453.09   16.72  426.54   16.23  447.53   16.62  437.04   16.42
  429.01   16.27  423.46   16.17  464.81   16.94  463.58   16.92  470.37   17.04
  481.48   17.24  474.07   17.11  530.86   18.10  531.48   18.11  562.96   18.64
  625.93   19.66  717.28   21.04  767.28   21.76  810.49   22.37  911.73   23.72
  920.37   23.84  869.14   23.16  777.16   21.90  742.59   21.41  652.47   20.07
  529.63   18.08  476.54   17.15  458.02   16.81  433.33   16.36  459.88   16.85
  459.26   16.84  456.17   16.78  431.48   16.32  451.23   16.69  440.74   16.49
  435.19   16.39  491.98   17.43  445.68   16.59  438.89   16.46  433.95   16.37
  457.41   16.80  447.53   16.62  444.44   16.56  424.69   16.19  441.98   16.52
  449.38   16.66  423.13   13.39  441.34   13.67  448.96   13.79  426.94   13.45
  420.58   13.35  443.88   13.71  448.72   16.96  436.54   16.73  447.44   16.94
  445.51   16.90  427.56   16.56  426.92   16.54  460.90   17.19  441.67   16.83
  441.67   16.83  437.82   16.75  462.82   17.22  419.87   16.41  410.26   16.22
  441.03   16.81  421.79   16.44  429.49   16.59  428.21   16.57  453.85   17.06
  421.79   16.44  423.08   16.47  452.56   17.03  435.90   16.72  420.51   16.42
  451.92   17.02  426.92   16.54  446.79   16.92  423.72   16.48  437.82   16.75
  450.00   16.98  424.36   16.49  441.67   16.83  432.05   16.64  445.51   16.90
  416.67   16.34  442.31   16.84  415.38   16.32  452.56   17.03  409.62   16.20
  420.51   16.42  428.21   16.57  420.51   16.42  458.97   17.15  425.00   16.51
  419.87   16.41  421.79   16.44  446.15   16.91  398.08   15.97  416.67   16.34
  425.64   16.52  428.35   13.30  404.00   12.91  426.29   13.26  413.08   13.06
  419.51   16.17  431.98   16.41  392.08   15.63  405.80   15.90  421.38   16.21
  397.69   15.74  427.61   16.33  405.17   15.89  441.95   16.60  446.31   16.68
  430.11   16.37  425.74   16.29  412.65   16.04  449.43   16.74  436.34   16.49
  440.08   16.56  408.29   15.95  390.21   15.60  418.26   16.15  440.70   16.57
  419.51   16.17  426.99   16.31  424.50   16.27  431.35   16.40  430.73   16.39
  448.18   16.71  430.73   16.39  436.96   16.50  430.73   16.39  426.37   16.30
  439.46   16.55  423.25   16.24  436.34   16.49  421.38   16.21  421.38   16.21
  422.00   16.22  439.46   16.55  430.11   16.37  439.46   16.55  438.21   16.53
  399.56   15.78  417.02   16.12  417.64   16.13  454.42   16.83  426.37   16.30
  431.98   16.41  431.35   16.40  428.24   16.34  420.13   16.18  415.68   12.98
  424.19   13.11  418.52   13.02  414.06   12.95  419.33   13.03  425.53   15.70
  420.90   15.61  418.58   15.57  419.74   15.59  430.16   15.78  386.16   14.95
  452.74   16.19  421.48   15.62  419.74   15.59  412.22   15.45  379.79   14.83
  421.48   15.62  409.32   15.39  427.85   15.74  427.27   15.73  412.79   15.46
  428.43   15.75  420.32   15.60  415.11   15.50  441.74   15.99  427.85   15.74
  422.06   15.63  399.48   15.21  411.64   15.44  401.79   15.25  427.85   15.74
  394.85   15.12  418.01   15.56  447.53   16.10  405.27   15.32  417.43   15.55
  376.32   14.76  426.11   15.71  431.32   15.80  429.01   15.76  419.16   15.58
  423.80   15.66  409.32   15.39  404.69   15.31  434.80   15.87  420.90   15.61
  447.53   16.10  424.37   15.67  418.01   15.56  426.69   15.72  435.37   15.88
  427.27   15.73  410.48   15.42  407.01   15.35  396.58   15.15  428.06   12.92
  418.30   12.78  395.67   12.43  406.59   12.60  416.74   12.75  400.12   15.34
  410.71   15.55  409.53   15.52  424.24   15.80  423.65   15.79  385.41   15.06
  417.18   15.67  390.70   15.16  411.89   15.57  387.76   15.11  400.12   15.34
  397.18   15.29  393.06   15.21  411.89   15.57  410.71   15.55  425.42   15.82
  413.06   15.59  413.65   15.60  404.24   15.42  433.07   15.96  403.65   15.41
  402.47   15.39  444.25   16.17  429.54   15.90  375.99   14.87  426.01   15.83
  466.61   16.57  473.67   16.69  474.85   16.72  532.51   17.70  678.43   19.98
  783.76   21.47  992.64   24.17 1193.88   26.50 1381.58   28.51 1393.94   28.64
 1322.74   27.90 1168.58   26.22  999.12   24.25  727.27   20.69  597.82   18.76
  472.49   16.67  443.66   16.16  462.49   16.50  405.41   15.45  444.25   16.17
  424.83   15.81  427.18   15.85  438.23   13.05  444.06   13.13  426.57   12.87
  420.75   12.79  407.54   12.58  402.92   15.35  425.15   15.77  383.04   14.97
  385.38   15.01  401.17   15.32  409.36   15.47  443.86   16.11  433.33   15.92
  408.77   15.46  450.88   16.24  395.32   15.20  412.28   15.53  440.35   16.05
  436.84   15.98  419.88   15.67  410.53   15.49  416.37   15.60  415.20   15.58
  405.26   15.39  415.20   15.58  438.60   16.02  414.62   15.57  411.11   15.51
  423.98   15.75  397.08   15.24  398.25   15.26  416.96   15.62  427.49   15.81
  413.45   15.55  380.70   14.92  399.42   15.28  415.20   15.58  429.82   15.85
  443.86   16.11  413.45   15.55  432.16   15.90  456.14   16.33  464.91   16.49
  495.32   17.02  556.14   18.03  563.74   18.16  632.16   19.23  666.67   19.74
  790.06   21.49  817.54   21.87  883.04   22.72  995.32   24.13 1170.76   26.17
 1573.10   30.33 1861.43   26.97 2202.68   29.34 2378.97   30.49 2301.57   29.99
 2021.30   28.11 1656.99   25.45 1324.63   27.73  955.45   23.55  670.44   19.73
  545.64   17.80  462.05   16.38  440.57   15.99  430.13   15.80  416.20   15.54
  432.45   15.84  432.45   15.84  410.39   15.43  401.10   15.26  432.45   15.84
  420.84   15.63  434.77   15.89  438.25   15.95  435.93   15.91  464.95   16.43
  458.57   16.32  493.98   16.93  579.31   18.34  679.73   19.86  909.59   22.98
 1307.21   27.55 1963.14   33.76 3209.40   43.16 5019.88   53.98 7393.41   65.51
10428.68   77.8013213.18   87.5815224.50   94.0115751.56   95.6213970.11   90.05
11367.87   81.23 8098.10   68.56 4989.70   53.82 2879.12   40.88 1519.66   29.70
  850.38   22.22  583.37   18.40  513.13   17.26  485.85   16.79  488.75   16.84
  461.47   16.37  469.02   16.50  554.93   17.95  631.55   19.15  730.88   17.37
  922.47   19.52 1243.32   22.66 1562.09   25.40 1830.08   27.49 2051.82   29.11
 2094.68   36.79 1882.05   34.88 1582.81   31.98 1218.29   28.06  895.78   24.06
  662.47   20.69  565.52   19.12  504.77   18.06  463.40   17.31  449.83   17.05
  414.93   16.38  404.59   16.17  418.16   16.44  447.25   17.00  421.39   16.50
  414.28   16.36  429.15   16.65  409.76   16.27  423.33   16.54  402.65   16.13
  422.69   16.53  419.45   16.47  421.39   16.50  476.33   17.55  476.98   17.56
  497.66   17.93  547.42   18.81  579.09   19.35  555.82   18.95  553.24   18.91
  579.74   19.36  554.53   18.93  497.66   17.93  472.45   17.47  460.82   17.26
  455.65   17.16  405.88   16.20  396.83   16.01  388.43   15.84  413.64   16.35
  398.77   16.05  420.10   16.48  398.13   16.04  400.71   16.09  408.47   16.25
  423.98   16.55  391.02   15.90  391.66   15.91  391.02   15.90  413.16   13.16
  409.81   13.10  408.55   13.08  402.26   12.98  390.53   12.79  371.20   15.53
  367.30   15.45  385.50   15.83  398.50   16.10  396.55   16.06  383.55   15.79
  387.45   15.87  393.95   16.00  378.35   15.68  397.85   16.08  382.25   15.76
  427.11   16.66  397.20   16.07  379.00   15.70  404.36   16.21  396.55   16.06
  396.55   16.06  400.46   16.13  386.80   15.86  367.30   15.45  403.06   16.19
  402.41   16.17  408.26   16.29  399.15   16.11  401.11   16.15  416.71   16.46
  443.36   16.98  394.60   16.02  388.75   15.90  387.45   15.87  413.46   16.39
  385.50   15.83  405.01   16.23  418.01   16.48  370.55   15.52  390.05   15.92
  377.05   15.66  382.25   15.76  381.60   15.75  381.60   15.75  390.70   15.94
  389.40   15.91  398.50   16.10  404.36   16.21  366.00   15.43  359.50   15.29
  366.00   15.43  397.20   16.07  375.10   15.62  383.21   12.80  407.56   13.20
  376.38   12.68  392.18   12.94  392.87   15.47  388.00   15.37  394.70   15.51
  370.95   15.03  394.70   15.51  397.75   15.57  404.45   15.70  398.96   15.59
  373.99   15.09  370.95   15.03  388.00   15.37  361.20   14.83  405.06   15.71
  373.38   15.08  389.83   15.41  399.57   15.60  360.59   14.82  377.04   15.15
  387.39   15.36  403.84   15.68  398.96   15.59  402.62   15.66  382.52   15.26
  411.76   15.84  372.77   15.07  403.84   15.68  388.00   15.37  377.04   15.15
  389.22   15.40  380.08   15.22  406.27   15.73  412.97   15.86  377.04   15.15
  419.07   15.98  442.82   16.42  479.98   17.10  514.69   17.71  562.81   18.52
  676.11   20.29  763.82   21.57  817.42   22.31  812.55   22.25  833.26   22.53
  728.49   21.06  683.42   20.40  573.78   18.69  498.25   17.42  444.65   16.46
  403.23   15.67  372.16   15.06  418.84   12.94  386.04   12.43  388.04   12.46
  402.44   12.69  389.24   12.48  381.81   15.16  381.21   15.15  389.04   15.31
  400.48   15.53  428.79   16.07  430.59   16.10  526.95   17.81  612.47   19.21
  829.27   22.35 1061.13   25.28 1482.08   29.88 1806.08   32.98 2132.49   35.84
 2254.74   36.85 2234.27   36.68 1943.39   34.21 1567.00   30.72 1205.66   26.95
  911.77   23.43  628.73   19.46  523.94   17.76  405.90   15.63  396.27   15.45
  384.22   15.21  367.96   14.89  373.38   15.00  397.47   15.47  399.88   15.52
  355.31   14.63  395.06   15.42  392.05   15.37  393.86   15.40  373.38   15.00
  376.99   15.07  381.81   15.16  402.29   15.57  384.82   15.22  385.43   15.24
  421.56   15.93  368.56   14.90  408.91   15.69  375.79   15.04  402.89   15.58
  377.60   15.08  381.81   15.16  369.17   14.91  369.77   14.92  374.59   15.02
  358.93   14.70  359.98   12.15  389.91   12.64  403.44   12.86  389.91   12.64
  394.01   12.71  353.80   14.70  370.30   15.04  364.19   14.92  400.86   15.65
  370.91   15.05  372.75   15.09  376.41   15.17  385.58   15.35  399.63   15.63
  414.30   15.91  449.74   16.58  507.79   17.62  516.35   17.76  587.84   18.95
  651.39   19.95  738.16   21.24  992.97   24.63 1342.50   28.64 1777.57   32.96
 2540.79   39.40 3238.62   44.49 3633.97   47.12 4070.27   49.87 3709.14   47.61
 3239.84   44.49 2526.73   39.29 1930.34   34.34 1346.17   28.68  880.54   23.20
  648.33   19.90  499.24   17.47  455.24   16.68  388.63   15.41  389.86   15.43
  395.36   15.54  382.52   15.29  360.53   14.84  369.08   15.02  356.25   14.75
  392.30   15.48  386.80   15.37  369.69   15.03  393.52   15.51  371.52   15.07
  398.41   15.60  386.19   15.36  402.69   15.69  360.53   14.84  405.13   15.73
  394.38   12.72  388.22   12.62  380.84   12.50  368.52   12.30  376.73   12.43
  369.91   15.31  383.85   15.59  375.61   15.42  417.42   16.26  412.35   16.16
  488.99   17.60  594.14   19.40  712.59   21.25  910.85   24.02 1169.28   27.21
 1421.38   30.01 1776.72   33.55 1783.06   33.61 1771.65   33.50 1589.87   31.73
 1330.80   29.03 1012.19   25.32  748.06   21.77  630.25   19.98  506.73   17.92
  454.16   16.96  428.82   16.48  412.98   16.17  393.35   15.78  369.91   15.31
  391.45   15.75  392.08   15.76  365.48   15.22  387.02   15.66  379.41   15.50
  412.98   16.17  392.72   15.77  439.59   16.69  452.26   16.93  513.06   18.03
  550.44   18.67  544.10   18.56  579.57   19.16  530.17   18.33  516.86   18.09
  493.43   17.68  444.66   16.78  438.32   16.66  395.25   15.82  385.11   15.62
  388.28   15.68  359.78   15.10  412.35   16.16  368.01   15.27  390.71   12.99
  368.23   12.62  378.17   12.78  379.47   12.81  366.94   12.59  372.58   15.58
  403.84   16.22  383.65   15.81  388.21   15.90  383.00   15.79  409.71   16.34
  403.19   16.21  386.91   15.88  390.82   15.95  406.45   16.27  381.05   15.75
  370.62   15.54  403.19   16.21  359.55   15.30  371.28   15.55  375.83   15.65
  373.88   15.61  379.09   15.71  383.00   15.79  363.46   15.39  364.11   15.40
  355.64   15.22  393.42   16.01  381.05   15.75  362.81   15.37  389.51   15.93
  379.74   15.73  388.21   15.90  349.13   15.08  378.44   15.70  384.30   15.82
  341.31   14.91  405.80   16.26  412.96   16.40  436.41   16.86  477.45   17.63
  496.34   17.98  585.57   19.53  575.15   19.36  665.69   20.82  623.35   20.15
  646.80   20.53  587.53   19.56  516.53   18.34  471.58   17.53  450.09   17.12
  427.29   16.68  407.10   16.28  384.95   15.83  396.37   13.00  380.16   12.74
  368.64   12.54  381.44   12.76  404.48   13.14  389.37   15.88  373.83   15.56
  380.30   15.70  364.11   15.36  409.46   16.29  384.19   15.78  379.01   15.67
  388.08   15.86  345.97   14.97  369.94   15.48  379.66   15.68  380.95   15.71
  380.95   15.71  416.59   16.43  356.33   15.19  397.15   16.04  376.42   15.62
  415.94   16.42  380.30   15.70  373.83   15.56  395.21   16.00  398.45   16.07
  454.16   17.15  476.84   17.58  512.47   18.22  613.54   19.94  691.29   21.16
  758.67   22.17  786.52   22.57  792.36   22.66  785.88   22.56  704.24   21.36
  564.95   19.13  541.63   18.73  511.18   18.20  525.43   18.45  487.85   17.78
  479.43   17.62  483.32   17.70  458.05   17.23  435.37   16.79  456.75   17.20
  408.16   16.26  450.92   17.09  442.50   16.93  455.46   17.18  529.96   18.53
  632.98   20.25  699.71   21.29  845.00   18.76  898.75   19.35  989.17   20.30
 1045.42   20.87 1091.67   21.33 1158.56   26.38 1421.02   29.21 1769.37   32.60
 2323.12   37.35 2994.59   42.41 3600.60   46.50 3965.77   48.80 3824.62   47.93
 3583.18   46.39 3035.44   42.70 2376.58   37.78 1816.82   33.03 1236.04   27.25
  896.70   23.21  654.05   19.82  523.12   17.73  439.04   16.24  396.40   15.43
  387.39   15.25  390.99   15.32  378.38   15.07  373.57   14.98  364.56   14.80
  378.98   15.09  392.19   15.35  385.59   15.22  345.95   14.41  373.57   14.98
  379.58   15.10  372.37   14.95  366.37   14.83  363.36   14.77  391.59   15.34
  387.39   15.25  375.38   15.02  350.75   14.51  379.58   15.10  400.60   15.51
  430.63   16.08  452.25   16.48  511.11   17.52  543.54   18.07  601.80   19.01
  699.70   20.50  791.59   21.80  792.79   21.82  718.32   20.77  712.91   20.69
  643.18   16.14  582.42   15.36  514.38   14.43  454.43   13.57  427.30   13.16
  383.56   12.46  385.43   15.24  395.06   15.42  372.78   14.98  372.78   14.98
  370.37   14.93  342.07   14.35  356.52   14.65  372.78   14.98  382.41   15.18
  370.97   14.95  401.08   15.54  366.76   14.86  395.66   15.44  385.43   15.24
  430.59   16.10  501.66   17.38  584.16   18.76  670.88   20.10  897.92   23.25
 1057.51   25.24 1296.00   27.94 1486.90   29.92 1604.94   31.09 1584.46   30.89
 1447.15   29.52 1321.89   28.21 1040.05   25.03  876.24   22.97  737.13   21.07
  543.21   18.09  501.66   17.38  465.52   16.74  422.16   15.94  335.44   14.21
  376.39   15.06  351.70   14.55  367.36   14.87  360.73   14.74  355.31   14.63
  348.09   14.48  365.55   14.84  373.38   15.00  368.56   14.90  364.35   14.81
  394.46   15.41  360.13   14.73  401.08   15.54  361.94   14.76  359.68   12.10
  351.13   11.95  351.13   11.95  374.73   12.35  366.19   12.21  378.39   12.41
  400.31   15.81  374.71   15.30  424.04   16.27  408.43   15.97  423.42   16.26
  402.19   15.85  397.19   15.75  428.42   16.36  392.19   15.65  384.07   15.49
  395.32   15.71  353.47   14.86  364.09   15.08  374.71   15.30  359.72   14.99
  385.95   15.53  339.73   14.57  388.45   15.58  345.36   14.69  344.73   14.67
  369.71   15.20  335.99   14.49  364.09   15.08  360.34   15.00  390.94   15.63
  378.45   15.37  370.96   15.22  360.97   15.01  392.82   15.66  344.11   14.66
  362.22   15.04  384.70   15.50  385.32   15.51  382.83   15.46  370.96   15.22
  369.09   15.18  387.82   15.56  374.71   15.30  342.86   14.63  369.71   15.20
  431.54   16.42  400.94   15.82  416.55   16.13  419.05   16.18  488.37   17.46
  519.59   18.01  556.44   18.64  663.23   20.35  690.70   17.14  869.75   19.23
 1028.39   20.91 1298.88   23.50 1603.40   26.11 2066.25   36.54 2666.67   41.51
 3131.36   44.99 3600.58   48.24 3750.53   49.23 3655.52   48.61 3238.00   45.75
 2742.93   42.10 2209.73   37.79 1695.27   33.10 1259.65   28.53  981.74   25.19
  707.06   21.38  567.46   19.15  490.55   17.81  447.89   17.01  380.03   15.67
  402.65   16.13  400.71   16.09  389.08   15.86  341.90   14.87  377.44   15.62
  381.97   15.71  338.67   14.79  358.05   15.21  363.87   15.34  386.49   15.80
  361.93   15.29  328.32   14.57  360.64   15.27  388.43   15.84  374.21   15.55
  381.32   15.70  370.98   15.48  372.27   15.51  332.20   14.65  345.77   14.95
  374.21   15.55  358.05   15.21  342.54   14.88  355.47   15.16  377.44   15.62
  361.29   15.28  354.82   15.14  355.47   15.16  350.95   15.06  336.08   14.74
  358.05   15.21  360.64   15.27  394.80   13.31  387.17   13.18  359.80   12.71
  405.56   13.49  416.78   13.67  435.83   17.45  439.32   17.52  461.67   17.96
  556.66   19.72  683.08   21.84  808.10   23.76 1046.97   27.04 1276.06   29.85
 1600.14   33.43 1848.79   35.93 1952.16   36.93 2060.42   37.94 1901.17   36.44
 1753.80   35.00 1432.51   31.63 1269.77   29.78 1045.57   27.02  900.30   25.08
  763.40   23.09  671.21   21.65  604.85   20.55  536.41   19.36  502.18   18.73
  491.71   18.53  419.07   17.11  419.07   17.11  384.15   16.38  389.03   16.48
  383.45   16.37  381.35   16.32  388.34   16.47  361.10   15.88  380.65   16.31
  383.45   16.37  365.99   15.99  377.86   16.25  364.59   15.96  361.80   15.90
  385.54   16.41  346.43   15.56  369.48   16.06  379.26   16.28  371.57   16.11
  405.80   16.84  383.45   16.37  393.23   16.57  398.11   16.68  405.80   16.84
  428.15   17.29  451.89   17.77  442.39   13.95  482.41   14.57  514.95   15.05
  568.16   15.81  697.51   21.39  742.13   22.07  931.76   24.73 1221.78   28.31
 1553.81   31.93 1817.59   34.53 2273.62   38.62 2338.58   39.17 2564.96   41.02
 2530.18   40.75 2345.80   39.23 2009.19   36.31 1699.48   33.39 1388.45   30.18
 1043.96   26.17  830.05   23.34  676.51   21.07  584.65   19.59  555.77   19.10
  503.28   18.17  587.93   19.64  613.52   20.06  714.57   21.65  904.86   24.37
 1156.82   27.55 1473.10   31.09 2039.37   36.58 2504.59   40.54 3070.21   44.88
 3549.21   48.26 3763.12   49.69 3856.96   50.31 3610.89   48.68 3097.11   45.08
 2673.88   41.89 2172.57   37.76 1743.44   33.82 1409.45   30.41 1276.25   28.94
 1087.93   26.72 1116.14   27.06 1036.75   26.08 1078.08   26.60 1036.09   26.07
 1066.27   26.45 1030.84   26.01  896.98   24.26  816.27   23.14  734.91   21.96
  653.34   16.76  581.13   15.80  478.40   14.34  446.16   13.85  428.11   13.57
  407.36   15.74  417.69   15.94  417.69   15.94  423.77   16.05  411.61   15.82
  431.07   16.19  516.19   17.72  529.56   17.94  564.22   18.52  656.03   19.97
  733.85   21.12  815.32   22.26  837.21   22.56  853.63   22.78  865.18   22.94
  733.85   21.12  682.78   20.37  661.50   20.05  533.82   18.02  494.30   17.34
  459.04   16.71  411.00   15.81  410.40   15.80  376.35   15.13  378.78   15.18
  403.10   15.66  358.72   14.77  361.76   14.83  372.70   15.05  377.56   15.15
  344.13   14.46  362.97   14.86  356.29   14.72  347.17   14.53  353.25   14.66
  345.95   14.50  346.56   14.52  344.13   14.46  366.01   14.92  331.36   14.19
  367.84   14.95  350.81   14.60  368.45   14.97  335.61   14.28  349.60   14.58
  381.21   15.22  378.17   15.16  355.07   14.69  366.01   14.92  358.93   12.05
  363.38   12.13  359.74   12.07  360.14   12.07  382.40   12.44  370.66   12.25
  378.76   15.25  351.14   14.68  370.78   15.09  353.59   14.73  356.05   14.78
  367.10   15.01  359.12   14.85  351.75   14.69  364.03   14.95  359.73   14.86
  355.43   14.77  362.80   14.92  370.78   15.09  378.76   15.25  398.40   15.64
  379.99   15.27  415.59   15.97  454.27   16.70  496.01   17.45  518.72   17.84
  599.14   19.18  730.51   21.18  759.98   21.60  860.65   22.99  960.10   24.28
  987.72   24.62  961.33   24.29  924.49   23.82  834.87   22.64  755.68   21.54
  682.63   20.47  612.65   19.39  519.34   17.86  480.05   17.17  463.47   16.87
  430.94   16.26  421.12   16.08  414.98   15.96  483.73   17.23  502.76   17.57
  492.33   17.38  526.70   17.98  544.51   18.28  510.74   17.71  532.23   18.08
  513.20   17.75  483.12   17.22  451.20   16.64  432.78   16.30  405.80   12.78
  373.99   12.27  373.59   12.26  350.24   11.87  339.58   14.21  363.96   14.71
  343.74   14.30  346.12   14.35  319.95   13.79  348.50   14.40  343.74   14.30
  353.26   14.49  347.90   14.38  330.06   14.01  344.34   14.31  344.34   14.31
  341.96   14.26  338.98   14.20  345.52   14.33  327.68   13.96  338.98   14.20
  356.82   14.57  368.72   14.81  335.41   14.12  331.85   14.05  353.85   14.51
  341.36   14.25  359.20   14.62  339.58   14.21  318.17   13.76  347.31   14.37
  346.71   14.36  328.87   13.99  346.12   14.35  347.90   14.38  339.58   14.21
  336.01   14.14  348.50   14.40  323.52   13.87  354.45   14.52  348.50   14.40
  358.61   14.60  348.50   14.40  369.31   14.82  353.26   14.49  347.90   14.38
  374.07   14.92  371.10   14.86  386.56   15.16  406.78   15.55  374.07   14.92
  479.93   16.89  481.71   16.93  518.58   17.56  548.28   14.92  603.92   15.66
  662.40   16.40  728.20   17.20  788.63   21.96  854.65   22.86  985.48   24.55
 1135.87   26.35 1246.52   27.61 1379.18   29.04 1456.82   29.84 1372.46   28.97
 1300.32   28.19 1193.34   27.01 1113.86   26.09  990.98   24.61  819.20   22.38
  698.76   20.67  637.02   19.73  525.14   17.92  460.34   16.78  434.05   16.29
  449.34   16.57  361.30   14.86  379.03   15.22  363.14   14.90  346.63   14.56
  346.63   14.56  348.46   14.60  358.25   14.80  372.31   15.09  349.08   14.61
  358.86   14.81  328.90   14.18  361.91   14.87  359.47   14.82  361.30   14.86
  389.42   15.43  426.72   16.15  434.05   16.29  462.78   16.82  495.80   17.41
  530.64   18.01  528.81   17.98  555.71   18.43  519.64   17.82  550.82   18.35
  528.81   17.98  544.09   18.24  509.25   17.64  462.78   16.82  430.99   16.23
  427.33   16.16  424.04   13.11  391.20   12.59  380.26   12.42  342.15   11.78
  391.61   12.60  374.99   12.33  410.73   15.96  408.25   15.92  438.65   16.50
  474.02   17.15  505.66   17.71  539.17   18.29  564.60   18.72  576.39   18.91
  639.06   19.91  649.60   20.08  663.25   20.29  620.44   19.62  571.43   18.83
  543.51   18.36  503.18   17.67  517.45   17.92  430.59   16.34  415.08   16.05
  377.85   15.31  372.89   15.21  361.72   14.98  359.24   14.93  362.96   15.01
  365.44   15.06  348.69   14.71  322.01   14.13  348.69   14.71  334.42   14.40
  313.94   13.96  358.00   14.90  336.28   14.44  351.17   14.76  379.71   15.35
  354.89   14.84  344.97   14.63  353.03   14.80  334.42   14.40  362.34   14.99
  385.30   15.46  391.50   15.59  378.47   15.32  366.68   15.08  393.36   15.62
  433.69   16.40  423.14   16.20  495.73   17.54  514.97   17.87  519.93   17.96
  559.07   15.14  594.32   15.61  637.36   16.16  664.00   16.50  741.06   17.43
  830.82   18.45  844.48   22.56  860.76   22.78  883.06   23.07  857.14   22.73
  856.54   22.72  781.80   21.71  801.69   21.98  732.37   21.01  626.88   19.44
  640.14   19.64  565.40   18.46  508.74   17.51  477.40   16.96  483.42   17.07
  512.96   17.58  502.71   17.41  567.81   18.50  575.65   18.63  658.23   19.92
  751.66   21.29  757.69   21.37  836.65   22.46  824.59   22.29  840.87   22.51
  808.32   22.07  790.84   21.83  727.55   20.94  678.12   20.22  623.27   19.38
  580.47   18.71  556.96   18.32  511.75   17.56  447.86   16.43  402.05   15.57
  443.04   16.34  440.02   16.29  455.70   16.57  456.30   16.58  451.48   16.50
  440.63   16.30  454.49   16.55  399.04   15.51  412.30   15.76  441.23   16.31
  464.14   16.73  435.80   16.21  461.72   16.68  491.19   13.95  529.61   14.48
  563.28   14.94  628.24   15.78  709.84   16.77  794.22   17.74  911.72   23.20
 1087.10   25.34 1242.99   27.09 1460.88   29.37 1665.78   31.36 1763.21   32.27
 1868.32   33.21 1866.55   33.20 1864.78   33.18 1637.44   31.09 1527.61   30.03
 1458.52   29.35 1319.75   27.92 1111.90   25.62  953.06   23.72  786.54   21.55
  667.26   19.85  634.19   19.35  524.95   17.61  480.66   16.85  435.78   16.04
  396.81   15.31  392.09   15.22  374.37   14.87  346.62   14.31  356.66   14.51
  328.90   13.94  326.54   13.89  329.50   13.95  322.41   13.80  325.95   13.87
  338.35   14.13  337.17   14.11  341.30   14.20  339.53   14.16  342.49   14.22
  331.27   13.99  341.30   14.20  355.48   14.49  336.58   14.10  330.09   13.96
  334.81   14.06  343.08   14.23  348.39   14.34  348.98   14.36  352.52   14.43
  366.70   14.72  353.11   14.44  344.26   14.26  336.58   11.52  352.35   11.78
  347.23   11.70  349.20   11.73  338.16   11.54  321.78   13.72  325.87   13.81
  328.80   13.87  355.71   14.43  335.23   14.00  336.40   14.03  374.43   14.80
  324.12   13.77  344.60   14.20  359.22   14.50  321.19   13.71  323.53   13.76
  341.09   14.13  342.84   14.16  333.48   13.97  350.45   14.32  363.90   14.59
  357.47   14.46  369.75   14.71  367.41   14.66  367.41   14.66  377.36   14.86
  359.22   14.50  394.91   15.20  400.18   15.30  459.85   16.40  485.01   16.85
  530.64   17.62  562.82   18.15  658.77   19.63  702.65   20.28  819.66   21.90
  894.54   22.88 1036.13   24.62 1201.70   26.52 1281.85   27.39 1488.96   29.51
 1566.77   30.28 1694.31   31.48 1766.86   32.15 1685.53   31.40 1617.67   30.76
 1571.45   30.32 1484.28   29.47 1350.88   28.11 1209.89   26.61 1043.73   24.71
  968.26   23.80  831.34   18.18  733.49   17.08  629.28   15.82  663.09   16.24
  597.45   15.42  560.51   18.44  564.15   18.50  558.08   18.40  567.79   18.56
  606.01   19.17  622.99   19.44  658.17   19.98  660.60   20.02  692.14   20.49
  662.42   20.05  703.67   20.66  652.11   19.89  584.17   18.82  549.59   18.26
  524.72   17.84  508.34   17.56  479.83   17.06  433.73   16.22  431.30   16.18
  399.15   15.56  387.63   15.33  389.44   15.37  353.05   14.63  353.05   14.63
  336.67   14.29  324.54   14.03  310.59   13.73  340.31   14.37  359.11   14.76
  348.80   14.55  343.95   14.44  365.18   14.88  340.92   14.38  330.60   14.16
  331.82   14.19  354.26   14.66  345.16   14.47  356.08   14.70  356.69   14.71
  370.64   14.99  387.02   15.32  387.02   15.32  419.17   15.95  417.35   15.91
  454.96   16.61  508.95   17.57  507.13   17.54  555.66   18.36  601.76   19.11
  638.16   19.68  745.30   17.31  816.49   18.12  966.92   19.72 1050.18   20.55
 1158.77   21.59 1243.23   27.51 1366.21   28.84 1433.79   29.55 1455.71   29.77
 1427.09   29.48 1386.91   29.06 1299.24   28.12 1243.84   27.52 1090.41   25.77
 1018.57   24.90  888.89   23.26  768.95   21.64  699.54   20.64  602.74   19.16
  563.77   18.53  563.77   18.53  474.28   16.99  442.01   16.40  404.26   15.69
  371.39   15.04  334.25   14.27  362.25   14.85  365.91   14.93  370.78   15.02
  357.38   14.75  357.38   14.75  388.43   15.38  395.13   15.51  384.78   15.31
  397.56   15.56  416.44   15.92  429.83   16.18  456.62   16.67  471.84   16.95
  500.46   17.46  517.50   17.75  605.18   19.19  588.74   18.93  613.09   19.32
  652.66   19.93  672.15   20.23  666.06   20.14  684.93   20.42  703.81   20.70
  695.28   20.57  651.45   19.92  631.96   19.62  661.19   20.06  659.36   20.04
  632.58   15.83  665.48   16.24  732.46   17.04  741.97   17.15  816.53   21.80
  824.68   21.91  937.58   23.36 1009.75   24.24 1074.35   25.01 1167.47   26.07
 1229.16   26.75 1268.15   27.17 1272.81   27.22 1271.06   27.20 1258.84   27.07
 1243.71   26.90 1141.86   25.78 1098.79   25.29 1024.88   24.42  913.14   23.05
  845.63   22.18  762.99   21.07  691.40   20.06  640.77   19.31  630.87   19.16
  558.13   18.02  520.30   17.40  477.23   16.67  465.01   16.45  418.45   15.61
  414.38   15.53  390.51   15.08  346.28   14.20  351.52   14.30  369.56   14.67
  363.74   14.55  364.32   14.56  355.01   14.37  367.23   14.62  362.58   14.53
  348.03   14.23  363.16   14.54  344.54   14.16  374.80   14.77  379.46   14.86
  378.29   14.84  359.09   14.46  414.96   15.54  438.82   15.98  389.93   15.06
  426.60   15.76  469.66   16.53  481.30   16.74  457.44   16.32  521.93   14.43
  568.18   15.05  547.05   14.77  578.95   15.19  591.31   15.35  581.95   18.67
  592.73   18.84  581.95   18.67  565.18   18.40  533.45   17.87  520.28   17.65
  529.26   17.80  514.89   17.56  501.12   17.32  549.62   18.14  523.87   17.71
  566.98   18.42  563.99   18.38  625.65   19.35  692.71   20.37  699.30   20.46
  710.07   20.62  854.96   22.62  968.72   24.08 1047.15   25.04 1210.60   26.92
 1352.49   28.46 1502.17   29.99 1744.65   32.32 2012.87   34.72 2218.83   36.45
 2458.31   38.36 2570.27   39.23 2718.75   40.35 2846.28   41.28 2807.96   41.00
 2812.75   41.04 2767.85   40.71 2619.97   39.61 2510.40   38.77 2367.91   37.65
 2058.97   35.11 1894.33   33.68 1600.96   30.96 1456.67   29.53 1206.41   26.88
 1075.89   25.38  913.64   23.39  842.99   22.47  694.51   20.39  652.60   19.77
  594.52   18.87  522.68   17.69  491.54   17.15  445.68   13.53  401.31   12.84
  409.53   12.97  397.21   12.77  382.83   12.54  393.82   15.92  415.70   16.36
  407.98   16.20  413.13   16.30  432.43   16.68  415.06   16.34  462.03   17.24
  448.52   16.99  512.23   18.16  528.31   18.44  551.48   18.84  527.67   18.43
  548.26   18.78  577.22   19.27  577.86   19.28  570.79   19.17  572.07   19.19
  530.24   18.47  550.84   18.83  523.81   18.36  475.55   17.49  512.23   18.16
  429.86   16.63  458.82   17.18  412.48   16.29  410.55   16.25  390.60   15.85
  386.74   15.78  355.21   15.12  332.05   14.62  364.22   15.31  372.59   15.48
  377.09   15.58  341.70   14.83  365.51   15.34  370.66   15.44  357.79   15.17
  358.43   15.19  376.45   15.56  371.94   15.47  354.57   15.11  366.80   15.36
  386.10   15.76  406.05   16.16  404.76   16.14  402.83   16.10  403.47   16.11
  438.22   16.79  434.91   13.43  467.25   13.92  509.95   14.54  523.63   14.73
  539.39   14.95  602.40   15.80  570.81   18.76  602.87   19.28  652.18   20.05
  652.18   20.05  693.48   20.68  686.08   20.57  668.82   20.30  642.93   19.91
  677.45   20.44  634.30   19.77  635.54   19.79  609.03   19.38  556.02   18.51
  589.30   19.06  560.95   18.60  535.68   18.17  551.70   18.44  549.85   18.41
  597.32   19.19  578.21   18.88  642.93   19.91  650.33   20.02  716.29   21.01
  763.14   21.69  826.63   22.57  896.29   23.51 1004.16   24.88 1125.60   26.34
 1163.82   26.78 1323.47   28.56 1444.29   29.84 1520.11   30.61 1571.27   31.12
 1644.63   31.84 1660.04   31.99 1676.68   32.15 1653.26   31.92 1637.85   31.77
 1604.56   31.45 1529.97   30.71 1409.77   29.48 1325.94   28.59 1238.40   27.63
 1114.50   26.21 1052.86   25.48  964.09   24.38  880.26   23.29  834.03   22.67
  723.69   21.12  693.01   16.70  687.38   16.63  605.33   15.60  582.81   15.31
  531.32   14.62  508.13   17.18  542.97   17.76  511.03   17.23  490.71   16.88
  506.39   17.15  506.39   17.15  518.58   17.35  515.68   17.31  490.13   16.87
  576.66   18.30  580.72   18.36  645.76   19.37  692.80   20.06  718.93   20.43
  797.91   21.53  847.27   22.18  853.66   22.27  906.50   22.94  954.70   23.55
  958.19   23.59  977.93   23.83  994.77   24.04  972.71   23.77  969.80   23.73
  985.48   23.92  904.76   22.92  855.98   22.30  846.11   22.17  825.78   21.90
  760.16   21.01  714.29   20.37  664.92   19.65  639.37   19.27  578.40   18.33
  544.13   17.78  495.93   16.97  472.71   16.57  475.61   16.62  457.61   16.30
  416.38   15.55  391.99   15.09  408.25   15.40  373.98   14.74  378.63   14.83
  355.40   14.37  369.92   14.66  374.56   14.75  354.82   14.35  364.69   14.55
  334.20   11.35  346.54   11.56  358.87   11.76  354.24   11.69  369.19   14.58
  377.83   14.75  347.30   14.14  362.85   14.46  394.53   15.07  366.88   14.54
  380.13   14.80  436.00   15.85  394.53   15.07  430.81   15.75  451.55   16.13
  482.07   16.66  493.02   16.85  518.93   17.29  502.81   17.02  559.25   17.95
  590.93   18.45  664.07   19.56  679.63   19.78  710.15   20.22  806.34   21.55
  832.83   21.90  867.39   22.35  972.79   23.67 1068.97   24.81 1047.66   24.56
 1081.64   24.96 1081.07   24.95 1095.46   25.12 1052.84   24.62 1116.20   25.36
 1096.62   25.13 1056.88   24.67 1050.54   24.60 1017.71   24.21  973.94   23.68
  882.94   22.55  827.07   21.83  797.70   21.43  726.28   20.45  664.07   19.56
  616.27   18.84  592.08   18.47  604.18   18.65  551.19   17.82  510.30   17.14
  524.69   17.38  460.19   16.28  494.17   16.87  485.84   14.04  504.92   14.32
  494.37   14.17  506.14   14.33  522.78   14.57  551.19   14.96  537.58   18.33
  603.22   19.42  656.35   20.26  658.23   20.28  706.99   21.02  736.37   21.45
  817.63   22.61  837.01   22.87  948.27   24.35  957.02   24.46 1056.42   25.70
 1069.54   25.86 1075.17   25.92 1098.30   26.20 1066.42   25.82 1070.79   25.87
 1098.30   26.20 1130.18   26.58 1089.55   26.10 1043.91   25.55 1063.92   25.79
 1021.41   25.27  983.28   24.79  932.65   24.15  916.39   23.93  875.76   23.40
  865.76   23.26  875.14   23.39  837.63   22.88  792.62   22.26  839.51   22.91
  861.38   23.20  943.90   24.29  932.65   24.15  970.15   24.63 1018.91   25.24
 1058.92   25.73 1108.92   26.33 1202.69   27.42 1225.82   27.68 1255.82   28.02
 1250.20   27.96 1272.07   28.20 1267.07   28.14 1270.82   28.18 1285.83   28.35
 1295.83   28.46 1188.31   27.25 1173.93   27.09 1148.93   26.80 1038.91   25.48
 1042.66   25.53  929.52   24.10  908.89   23.84  832.99   33.84  800.00   33.16
  673.54   30.43  647.42   29.83  593.81   28.57  558.08   27.70  564.95   27.87
  533.33   27.08  457.73   25.08  467.35   25.35  402.75   23.53  431.62   24.36
  448.11   24.82  398.63   23.41  393.13   23.25  412.37   23.81  387.63   23.08
  356.01   22.12  386.25   23.04  397.25   23.37  391.75   23.21  373.88   22.67
  369.76   22.54  420.62   24.05  402.75   23.53  421.99   24.08  416.49   23.93
  412.37   23.81  470.10   25.42  459.11   25.12  472.85   25.49  474.23   25.53
  537.46   27.18  489.35   25.94  527.84   26.94  516.84   26.65  547.08   27.42
  518.21   26.69  567.70   27.93  536.08   27.15  545.70   27.39  555.33   27.63
  545.70   27.39  545.70   27.39  490.72   25.97  498.97   26.19  461.86   25.20
  516.84   26.65  507.22   26.40  511.34   26.51  468.73   25.38  486.60   25.86
  467.35   25.35                                                                