                                                                                
BANK 1 2431 487 CONST  602.500    5.000 0 0 ESD                                 
  504.96   23.94  497.02   23.75  499.29   23.80  502.70   23.88  474.33   23.20
  500.43   23.83  493.62   23.67  516.31   24.21  487.94   23.53  476.60   23.26
  475.46   23.23  517.45   24.23  533.33   24.60  481.13   23.37  483.40   23.42
  521.99   24.34  442.55   22.41  465.25   22.98  516.31   24.21  506.10   23.96
  472.06   23.14  511.77   24.10  462.98   22.92  468.65   23.06  508.37   24.02
  475.46   23.23  461.84   22.89  482.27   23.39  442.55   22.41  514.04   24.15
  510.64   24.07  486.81   23.50  535.60   24.65  511.77   24.10  485.67   23.48
  462.98   22.92  483.40   23.42  481.13   23.37  461.84   22.89  539.01   24.73
  459.57   22.84  515.18   24.18  474.33   23.20  498.16   23.78  511.77   24.10
  492.48   23.64  508.37   24.02  485.67   23.48  476.60   23.26  469.79   23.09
  511.77   24.10  516.31   24.21  503.04   16.86  506.43   16.92  503.60   16.87
  482.69   16.52  454.43   16.03  482.69   16.52  469.13   16.28  490.60   16.65
  501.91   16.84  481.56   16.50  469.69   16.29  496.26   16.75  495.69   16.74
  508.12   16.95  456.69   16.07  491.73   16.67  510.95   16.99  466.30   16.23
  479.30   16.46  469.69   16.29  486.65   16.58  483.82   16.54  479.86   16.47
  507.56   16.94  463.47   16.19  485.52   16.57  496.26   16.75  440.30   15.78
  480.99   16.49  477.04   16.42  516.60   17.09  464.04   16.20  471.39   16.32
  505.86   16.91  497.95   16.78  455.56   16.05  473.08   16.35  493.43   16.70
  493.99   16.71  482.69   16.52  478.73   16.45  462.34   16.17  477.04   16.42
  492.30   16.68  487.21   16.59  474.21   16.37  463.47   16.19  462.91   16.18
  489.47   16.63  483.26   16.53  444.82   15.86  486.65   16.58  458.39   16.10
  487.19   13.48  446.18   12.90  478.61   13.36  487.19   13.48  458.48   13.07
  494.27   13.57  466.31   13.18  459.98   13.09  465.17   16.07  520.68   17.00
  450.18   15.81  459.06   15.96  469.61   16.15  472.94   16.20  460.73   15.99
  469.61   16.15  469.61   16.15  468.50   16.13  466.28   16.09  460.73   15.99
  442.41   15.67  453.51   15.87  485.15   16.41  464.61   16.06  479.05   16.31
  446.85   15.75  499.58   16.65  470.16   16.16  460.17   15.98  504.02   16.73
  469.05   16.14  448.52   15.78  469.05   16.14  455.73   15.91  517.90   16.96
  484.04   16.39  491.26   16.51  485.15   16.41  466.28   16.09  485.71   16.42
  482.38   16.36  502.36   16.70  462.95   16.03  462.95   16.03  495.70   16.59
  466.28   16.09  472.94   16.20  430.20   15.45  445.74   15.73  486.82   16.44
  467.94   16.12  472.38   16.19  469.05   16.14  465.17   16.07  450.74   15.82
  489.88   13.49  478.37   13.33  457.57   13.04  489.14   13.48  457.94   13.04
  457.19   15.92  439.46   15.61  454.42   15.87  459.41   15.96  454.42   15.87
  450.54   15.80  463.29   16.02  463.84   16.03  442.23   15.65  464.39   16.04
  502.08   16.68  428.37   15.41  471.60   16.17  469.94   16.14  461.62   15.99
  446.66   15.73  462.73   16.01  459.96   15.97  450.54   15.80  446.11   15.72
  460.52   15.98  493.77   16.54  446.11   15.72  496.54   16.59  474.92   16.22
  460.52   15.98  437.24   15.57  473.26   16.19  430.59   15.45  469.94   16.14
  461.62   15.99  463.29   16.02  465.50   16.06  456.08   15.90  482.13   16.35
  445.00   15.70  448.88   15.77  487.67   16.44  473.26   16.19  443.89   15.68
  479.91   16.31  436.13   15.55  441.12   15.64  436.69   15.56  495.98   16.58
  427.82   15.40  440.01   15.62  490.99   16.50  471.04   16.16  471.04   16.16
  445.43   12.83  449.87   12.90  455.78   12.98  448.17   15.82  445.93   15.78
  449.28   15.84  491.70   16.57  467.70   16.16  428.07   15.46  469.93   16.19
  464.91   16.11  453.75   15.91  458.21   15.99  458.77   16.00  454.30   15.92
  452.63   15.89  462.12   16.06  490.58   16.55  481.65   16.40  485.56   16.46
  479.42   16.36  509.00   16.85  505.09   16.79  542.49   17.40  554.21   17.59
  580.44   18.00  631.78   18.78  658.02   19.16  717.18   20.01  771.31   20.75
  896.89   22.37  962.19   23.17 1246.27   26.37 1437.70   28.33 1781.50   31.53
 1960.65   33.08 2245.29   35.40 2172.18   34.82 2143.16   34.59 1809.40   31.78
 1501.33   28.95 1082.74   24.58  842.19   21.68  613.92   18.51  524.07   17.10
  450.96   15.86  458.77   16.00  497.84   16.67  453.19   15.90  477.19   16.32
  469.93   16.19  458.21   15.99  433.65   15.56  488.91   16.52  446.63   13.12
  480.96   13.62  439.30   13.02  462.83   13.36  474.22   16.69  500.07   17.14
  496.55   17.08  448.95   16.24  484.21   16.87  515.94   17.41  500.66   17.15
  516.53   17.42  545.91   17.91  540.62   17.82  596.44   18.72  600.56   18.79
  693.40   20.19  790.95   21.56  822.09   21.98  965.48   23.82 1188.19   26.42
 1459.09   29.28 1752.31   32.09 2022.62   34.48 2228.29   36.19 2230.64   36.20
 2050.24   34.71 1786.40   32.40 1390.92   28.59 1090.05   25.31  759.22   21.12
  600.56   18.79  514.18   17.38  443.07   16.14  457.76   16.40  451.89   16.30
  444.84   16.17  446.01   16.19  451.30   16.28  446.01   16.19  473.04   16.67
  423.68   15.78  460.70   16.45  431.91   15.93  468.34   16.59  453.65   16.33
  454.24   16.34  442.49   16.13  433.08   15.95  428.38   15.87  447.77   16.22
  462.47   16.49  472.45   16.66  449.47   13.35  457.80   13.48  466.92   13.61
  442.33   13.25  464.15   13.57  445.90   13.30  427.78   16.25  460.49   16.86
  450.62   16.68  459.88   16.85  452.47   16.71  453.09   16.72  451.23   16.69
  450.00   16.67  504.94   17.65  489.51   17.38  486.42   17.33  476.54   17.15
  510.49   17.75  536.42   18.20  535.19   18.18  582.10   18.96  589.51   19.08
  720.37   21.09  808.64   22.34  844.44   22.83  875.31   23.24  901.85   23.59
  835.80   22.71  774.69   21.87  664.81   20.26  573.46   18.81  515.43   17.84
  475.31   17.13  469.75   17.03  466.05   16.96  462.35   16.89  454.32   16.75
  420.99   16.12  467.90   16.99  451.85   16.70  457.41   16.80  441.36   16.51
  441.98   16.52  440.12   16.48  459.26   16.84  430.86   16.31  430.86   16.31
  451.85   16.70  459.88   16.85  421.60   16.13  454.94   16.76  461.11   16.87
  443.21   16.54  431.60   13.52  436.68   13.60  459.55   13.95  457.01   13.91
  440.49   13.66  466.33   14.05  442.31   16.84  437.18   16.74  467.31   17.31
  419.87   16.41  427.56   16.56  452.56   17.03  450.64   17.00  470.51   17.37
  462.18   17.21  440.38   16.80  432.69   16.65  433.33   16.67  414.10   16.29
  432.69   16.65  451.28   17.01  448.08   16.95  474.36   17.44  426.28   16.53
  453.85   17.06  430.13   16.60  434.62   16.69  441.03   16.81  442.31   16.84
  453.85   17.06  398.08   15.97  461.54   17.20  472.44   17.40  418.59   16.38
  451.92   17.02  448.72   16.96  431.41   16.63  422.44   16.46  453.85   17.06
  391.03   15.83  442.95   16.85  459.62   17.16  428.85   16.58  435.26   16.70
  413.46   16.28  408.97   16.19  416.03   16.33  469.23   17.34  403.21   16.08
  473.72   17.43  483.33   17.60  441.67   16.83  407.05   16.15  446.15   16.91
  419.23   16.39  422.99   13.21  424.64   13.24  427.11   13.28  420.92   13.18
  425.12   16.28  423.87   16.25  428.24   16.34  428.86   16.35  405.80   15.90
  405.17   15.89  410.16   15.99  413.90   16.06  441.33   16.59  445.69   16.67
  430.11   16.37  466.26   17.05  428.86   16.35  441.95   16.60  464.39   17.01
  420.76   16.19  445.07   16.66  443.20   16.62  414.52   16.07  433.85   16.44
  423.25   16.24  426.99   16.31  415.77   16.10  431.35   16.40  438.21   16.53
  441.33   16.59  440.08   16.56  431.35   16.40  403.30   15.86  438.21   16.53
  441.95   16.60  438.21   16.53  416.39   16.11  424.50   16.27  425.12   16.28
  410.78   16.00  424.50   16.27  433.22   16.43  438.21   16.53  416.39   16.11
  449.43   16.74  433.22   16.43  417.02   16.12  405.17   15.89  432.60   16.42
  439.46   16.55  417.02   16.12  420.76   16.19  430.11   16.37  418.92   13.03
  427.43   13.16  430.67   13.21  425.81   13.13  448.90   13.49  435.37   15.88
  422.64   15.64  418.58   15.57  402.37   15.26  426.11   15.71  429.01   15.76
  435.95   15.89  426.69   15.72  411.64   15.44  422.64   15.64  446.37   16.08
  444.64   16.04  435.95   15.89  416.85   15.53  467.22   16.45  441.16   15.98
  416.27   15.52  424.95   15.69  449.85   16.14  406.43   15.34  440.58   15.97
  390.79   15.04  412.79   15.46  443.48   16.02  409.32   15.39  419.74   15.59
  423.80   15.66  417.43   15.55  458.53   16.29  463.74   16.39  424.95   15.69
  423.80   15.66  472.43   16.54  419.74   15.59  433.06   15.83  463.74   16.39
  461.43   16.34  430.74   15.79  416.85   15.53  417.43   15.55  432.48   15.82
  397.16   15.16  435.95   15.89  457.95   16.28  435.95   15.89  428.43   15.75
  411.06   15.43  415.11   15.50  420.32   15.60  427.85   15.74  431.18   12.97
  422.59   12.84  429.62   12.95  435.47   13.04  428.45   12.93  423.07   15.78
  441.89   16.12  433.66   15.97  400.12   15.34  413.65   15.60  429.54   15.90
  456.60   16.39  456.02   16.38  419.54   15.71  422.48   15.77  447.19   16.22
  421.89   15.76  424.24   15.80  438.36   16.06  399.53   15.33  417.18   15.67
  402.47   15.39  424.83   15.81  421.30   15.74  420.12   15.72  400.71   15.36
  420.71   15.73  425.42   15.82  440.13   16.09  466.61   16.57  499.56   17.14
  504.85   17.24  550.16   17.99  642.54   19.44  783.17   21.47  898.50   22.99
 1140.34   25.90 1296.85   27.62 1369.81   28.39 1324.51   27.92 1190.94   26.47
 1015.00   24.44  813.77   21.88  637.25   19.36  534.86   17.74  501.32   17.18
  414.83   15.62  437.19   16.04  436.60   16.03  450.72   16.29  467.78   16.59
  428.36   15.88  402.47   15.39  428.90   12.91  411.03   12.64  439.78   13.07
  430.07   12.93  423.08   12.82  415.20   15.58  442.69   16.09  416.96   15.62
  415.20   15.58  423.98   15.75  436.26   15.97  443.86   16.11  429.24   15.84
  436.84   15.98  409.94   15.48  430.41   15.87  405.85   15.41  435.09   15.95
  428.65   15.83  421.05   15.69  436.84   15.98  435.09   15.95  418.13   15.64
  428.07   15.82  423.98   15.75  420.47   15.68  419.88   15.67  423.39   15.74
  419.30   15.66  457.31   16.35  449.12   16.21  405.26   15.39  386.55   15.04
  429.82   15.85  398.25   15.26  418.71   15.65  412.28   15.53  410.53   15.49
  451.46   16.25  447.95   16.19  441.52   16.07  497.66   17.06  508.77   17.25
  603.51   18.79  663.74   19.70  683.63   19.99  747.37   20.91  829.82   22.03
 1000.58   24.19 1098.25   25.34 1449.71   29.12 1764.91   32.13 2070.18   34.79
 2352.63   37.09 2317.60   30.10 2152.25   29.01 1866.90   27.01 1377.11   23.20
 1017.10   19.94  755.59   17.19  606.59   18.76  514.29   17.28  451.60   16.19
  475.40   16.61  459.15   16.33  469.60   16.51  440.57   15.99  438.83   15.96
  435.35   15.90  469.60   16.51  436.51   15.92  447.54   16.12  460.31   16.35
  445.80   16.09  452.18   16.20  488.75   16.84  473.08   16.57  500.36   17.04
  576.98   18.30  718.62   20.42  950.81   23.49 1344.94   27.94 2085.04   34.79
 3168.77   42.89 4981.57   53.77 7436.37   65.7010369.47   77.5813209.69   87.57
14830.94   92.7815060.80   93.5013812.22   89.5410913.37   79.59 7728.34   66.98
 4906.69   53.37 2641.71   39.16 1429.11   28.80  803.37   21.59  583.95   18.41
  498.04   17.00  500.36   17.04  517.20   17.33  482.95   16.74  493.98   16.93
  547.38   17.83  622.84   19.01  803.37   21.59  939.78   23.36 1204.09   22.30
 1512.54   24.99 1831.32   27.50 2110.87   29.52 2057.19   29.15 1878.81   27.85
 1635.16   32.51 1259.01   28.53  924.87   24.45  746.49   21.96  544.19   18.75
  482.79   17.66  492.49   17.84  476.98   17.56  465.99   17.35  436.90   16.80
  444.66   16.95  458.88   17.22  431.73   16.70  405.24   16.18  440.14   16.87
  438.20   16.83  447.89   17.01  456.94   17.18  463.40   17.31  479.56   17.61
  511.88   18.19  547.42   18.81  535.14   18.60  564.23   19.10  551.30   18.88
  524.16   18.41  533.20   18.56  497.01   17.92  530.62   18.52  557.12   18.98
  509.29   18.14  480.21   17.62  460.17   17.25  453.71   17.12  414.28   16.36
  434.32   16.75  437.55   16.82  394.25   15.96  417.51   16.43  408.47   16.25
  427.86   16.63  407.82   16.24  408.47   16.25  395.54   15.99  432.38   16.72
  430.44   16.68  421.39   16.50  399.42   16.07  401.36   16.11  393.04   12.83
  416.09   13.20  426.15   13.36  410.64   13.12  415.25   13.19  398.50   16.10
  390.05   15.92  427.76   16.68  430.36   16.73  423.86   16.60  438.16   16.88
  397.85   16.08  416.71   16.46  440.11   16.91  414.11   16.41  395.25   16.03
  398.50   16.10  412.81   16.38  408.91   16.30  376.40   15.64  401.11   16.15
  406.96   16.27  391.35   15.95  427.76   16.68  423.21   16.59  395.25   16.03
  412.16   16.37  410.21   16.33  379.00   15.70  416.71   16.46  395.25   16.03
  408.26   16.29  415.41   16.43  416.71   16.46  390.05   15.92  397.20   16.07
  418.66   16.50  419.96   16.52  398.50   16.10  417.36   16.47  393.30   15.99
  401.76   16.16  414.11   16.41  409.56   16.32  397.85   16.08  378.35   15.68
  409.56   16.32  395.90   16.04  427.76   16.68  420.61   16.54  425.16   16.63
  384.85   15.82  398.50   16.10  377.70   15.67  402.01   13.11  393.04   12.96
  390.90   12.92  412.26   13.27  420.28   16.00  387.39   15.36  406.88   15.74
  394.70   15.51  411.15   15.83  392.87   15.47  394.70   15.51  395.92   15.53
  419.07   15.98  394.70   15.51  410.54   15.81  419.67   15.99  431.25   16.21
  384.35   15.30  395.31   15.52  395.31   15.52  382.52   15.26  420.89   16.01
  391.05   15.43  390.44   15.42  401.40   15.64  416.02   15.92  392.26   15.46
  430.64   16.20  388.00   15.37  394.70   15.51  409.93   15.80  394.70   15.51
  414.80   15.90  402.62   15.66  430.03   16.18  434.29   16.26  446.47   16.49
  507.39   17.58  548.80   18.28  663.93   20.11  747.37   21.34  796.10   22.02
  860.06   22.89  849.09   22.74  776.00   21.74  730.32   21.09  604.84   19.19
  509.82   17.62  501.29   17.47  456.22   16.67  406.88   15.74  420.28   16.00
  395.31   15.52  420.28   16.00  411.24   12.83  411.24   12.83  410.44   12.81
  413.24   12.86  415.24   12.89  444.44   16.36  425.17   16.00  458.30   16.61
  539.60   18.03  675.70   20.17  893.71   23.20 1105.69   25.80 1497.74   30.03
 1803.67   32.96 2178.86   36.22 2246.31   36.78 2163.81   36.10 1817.52   33.08
 1469.44   29.75 1111.71   25.87  844.93   22.56  601.63   19.03  482.99   17.05
  469.14   16.81  417.95   15.87  423.37   15.97  411.32   15.74  402.29   15.57
  414.94   15.81  392.65   15.38  398.68   15.49  413.73   15.78  383.62   15.20
  387.23   15.27  389.04   15.31  423.37   15.97  437.82   16.24  415.54   15.82
  375.79   15.04  413.73   15.78  387.23   15.27  406.50   15.65  387.83   15.28
  401.08   15.54  398.07   15.48  406.50   15.65  427.58   16.05  376.39   15.06
  415.54   15.82  395.06   15.42  398.07   15.48  408.31   15.68  395.06   15.42
  388.44   15.29  393.19   12.70  396.47   12.75  398.93   12.79  394.83   12.72
  391.55   12.67  439.35   16.39  395.36   15.54  372.75   15.09  403.30   15.70
  424.08   16.10  411.85   15.86  447.30   16.53  484.57   17.21  529.79   17.99
  531.01   18.01  629.39   19.61  660.56   20.09  832.26   22.55 1021.69   24.99
 1318.67   28.39 1852.12   33.64 2518.18   39.23 3146.96   43.85 3624.20   47.06
 3748.85   47.86 3542.93   46.53 3005.19   42.85 2372.75   38.08 1708.52   32.31
 1227.62   27.39  816.38   22.34  623.89   19.53  531.01   18.01  469.29   16.93
  397.19   15.58  418.58   15.99  402.69   15.69  396.58   15.57  416.13   15.95
  383.75   15.31  403.91   15.71  406.97   15.77  410.63   15.84  378.25   15.20
  383.13   15.30  414.91   15.92  413.69   15.90  362.36   14.88  403.91   15.71
  403.91   15.71  413.08   15.89  385.58   15.35  399.63   15.63  404.52   15.72
  389.04   12.64  407.92   12.94  404.23   12.88  408.33   12.94  380.84   12.50
  403.48   15.99  453.52   16.95  457.32   17.02  547.90   18.63  672.05   20.63
  850.67   23.21 1092.64   26.31 1387.81   29.65 1618.37   32.02 1776.09   33.54
 1689.94   32.72 1607.60   31.91 1413.14   29.92 1100.24   26.40  828.50   22.91
  647.35   20.25  566.27   18.94  449.72   16.88  435.15   16.60  427.55   16.46
  396.52   15.85  388.28   15.68  405.38   16.02  389.55   15.71  387.02   15.66
  400.95   15.94  411.08   16.14  423.75   16.38  416.79   16.25  459.22   17.06
  471.26   17.28  504.83   17.88  551.07   18.68  603.64   19.55  571.97   19.03
  553.60   18.73  539.67   18.49  506.73   17.92  474.43   17.34  474.43   17.34
  418.69   16.28  410.45   16.12  385.11   15.62  416.15   16.24  366.75   15.24
  397.15   15.86  412.35   16.16  389.55   15.71  360.41   15.11  401.94   13.18
  401.94   13.18  415.78   13.41  388.11   12.95  393.30   13.04  402.54   16.19
  405.80   16.26  413.61   16.41  371.28   15.55  407.75   16.30  397.33   16.09
  423.38   16.61  405.80   16.26  398.63   16.11  403.84   16.22  379.09   15.71
  374.53   15.62  373.88   15.61  414.26   16.43  420.13   16.54  388.86   15.92
  415.57   16.45  405.15   16.24  414.92   16.44  397.98   16.10  403.84   16.22
  387.56   15.89  401.24   16.17  376.49   15.66  391.47   15.97  388.86   15.92
  422.08   16.58  396.68   16.07  405.15   16.24  416.22   16.47  461.81   17.34
  482.66   17.73  539.33   18.74  575.15   19.36  619.44   20.09  650.06   20.58
  625.96   20.19  625.31   20.18  567.99   19.23  515.88   18.33  479.40   17.67
  477.45   17.63  436.41   16.86  431.85   16.77  436.41   16.86  406.45   16.27
  426.64   16.67  403.19   16.21  370.62   15.54  389.12   12.89  399.79   13.06
  401.49   13.09  410.45   13.23  416.43   13.33  407.52   16.25  415.29   16.40
  431.49   16.72  396.50   16.03  406.87   16.24  435.37   16.79  421.77   16.53
  422.42   16.54  416.59   16.43  388.08   15.86  428.25   16.66  418.53   16.47
  394.56   15.99  383.54   15.76  379.66   15.68  417.88   16.45  391.97   15.94
  431.49   16.72  430.84   16.71  454.81   17.17  502.75   18.05  559.77   19.04
  656.30   20.62  756.07   22.13  831.23   23.21  761.26   22.21  767.09   22.29
  745.71   21.98  710.72   21.46  652.41   20.56  599.29   19.70  548.10   18.84
  517.65   18.31  528.02   18.50  470.36   17.46  464.53   17.35  473.60   17.52
  434.73   16.78  426.95   16.63  430.19   16.69  438.61   16.86  489.80   17.81
  538.39   18.68  595.40   19.64  643.34   20.42  766.44   22.28  835.76   23.27
  940.07   24.68  938.13   24.65 1004.17   20.45 1019.17   20.61 1129.58   21.69
 1329.58   23.54 1711.25   26.70 2340.54   37.49 2910.51   41.81 3362.16   44.94
 3693.09   47.10 3656.46   46.86 3303.30   44.54 2762.76   40.73 2064.86   35.22
 1538.74   30.40 1150.15   26.28  858.26   22.70  678.08   20.18  515.92   17.60
  454.65   16.52  432.43   16.12  412.01   15.73  392.19   15.35  439.04   16.24
  385.59   15.22  397.60   15.45  382.58   15.16  386.79   15.24  389.19   15.29
  416.82   15.82  428.23   16.04  387.99   15.27  383.78   15.18  398.20   15.46
  387.39   15.25  401.80   15.53  401.20   15.52  403.60   15.57  395.20   15.41
  417.42   15.83  427.63   16.03  448.65   16.42  488.29   17.13  530.33   17.85
  568.17   18.47  684.08   20.27  739.94   21.08  769.97   21.50  718.92   20.78
  723.72   20.85  689.49   20.35  614.41   19.21  539.34   18.00  451.05   16.46
  438.23   13.32  432.56   13.24  413.53   12.94  380.32   12.41  388.42   12.54
  401.38   12.75  407.71   15.67  394.46   15.41  414.33   15.80  407.71   15.67
  394.46   15.41  370.97   14.95  420.96   15.92  407.71   15.67  396.27   15.45
  422.76   15.96  434.21   16.17  440.83   16.29  520.93   17.71  610.66   19.18
  735.92   21.05  899.73   23.28 1120.14   25.97 1331.53   28.32 1444.75   29.50
 1526.05   30.32 1435.71   29.40 1294.19   27.92 1052.09   25.17  909.36   23.40
  752.79   21.29  629.33   19.47  512.50   17.57  481.18   17.02  470.34   16.83
  427.58   16.05  424.57   15.99  371.57   14.96  416.14   15.83  392.65   15.38
  378.20   15.09  402.89   15.58  394.46   15.41  387.83   15.28  398.07   15.48
  387.23   15.27  368.56   14.90  375.19   15.03  398.68   15.49  395.06   15.42
  385.43   15.24  379.40   15.12  399.28   15.51  392.65   15.38  413.79   12.98
  432.92   13.27  424.37   13.14  421.93   13.10  438.21   13.35  438.61   13.36
  464.64   17.03  424.67   16.29  435.91   16.50  451.52   16.79  414.05   16.08
  409.06   15.98  410.30   16.01  387.82   15.56  407.18   15.95  424.04   16.27
  410.30   16.01  388.45   15.58  419.05   16.18  389.70   15.60  389.70   15.60
  417.17   16.14  412.18   16.04  395.94   15.72  377.21   15.35  361.59   15.03
  372.83   15.26  382.83   15.46  389.70   15.60  413.43   16.07  389.07   15.59
  410.93   16.02  415.93   16.12  392.82   15.66  399.06   15.79  373.46   15.27
  407.81   15.96  399.69   15.80  410.93   16.02  425.92   16.31  419.05   16.18
  407.18   15.95  424.04   16.27  402.19   15.85  454.02   16.84  472.76   17.18
  538.33   18.34  542.08   18.40  673.85   20.51  712.57   21.10  828.10   22.74
  918.03   23.94 1174.08   27.08 1423.26   29.81 1800.74   27.67 2305.16   31.31
 2779.37   34.38 3223.39   37.03 3484.53   38.50 3461.63   47.30 3194.05   45.44
 2614.32   41.11 2181.29   37.55 1662.95   32.78 1292.62   28.90  978.51   25.15
  742.61   21.91  607.53   19.82  513.17   18.21  493.78   17.86  417.51   16.43
  418.16   16.44  424.62   16.57  414.93   16.38  396.19   16.00  440.78   16.88
  402.65   16.13  374.21   15.55  411.70   16.31  401.36   16.11  400.71   16.09
  403.94   16.16  397.48   16.03  412.99   16.34  416.87   16.41  388.43   15.84
  411.05   16.30  397.48   16.03  367.10   15.40  411.70   16.31  373.57   15.54
  409.11   16.26  395.54   15.99  372.92   15.52  399.42   16.07  395.54   15.99
  419.45   16.47  392.96   15.94  423.33   16.54  361.93   15.29  390.37   15.88
  399.42   16.07  409.76   16.27  395.54   15.99  428.50   16.64  412.34   16.32
  419.45   16.47  402.00   16.12  449.98   14.21  481.83   14.70  528.04   15.39
  555.41   15.79  648.72   17.06  715.91   22.36  921.25   25.37 1165.71   28.53
 1308.89   30.24 1646.94   33.92 1825.04   35.70 1855.07   36.00 1917.23   36.59
 1790.12   35.36 1475.82   32.11 1219.49   29.18 1099.35   27.71  901.69   25.10
  808.10   23.76  696.35   22.05  643.97   21.21  599.97   20.47  576.22   20.06
  509.17   18.86  465.86   18.04  474.94   18.21  462.37   17.97  451.20   17.75
  400.91   16.73  416.27   17.05  412.78   16.98  396.02   16.63  434.43   17.42
  433.04   17.39  401.61   16.75  406.50   16.85  381.35   16.32  429.54   17.32
  384.15   16.38  414.88   17.02  411.38   16.95  386.94   16.44  402.30   16.76
  422.56   17.18  436.53   17.46  430.94   17.35  430.94   17.35  463.07   17.98
  440.02   17.53  463.77   18.00  465.17   18.02  518.25   19.03  517.55   19.01
  588.79   20.28  616.03   20.74  721.64   17.81  863.68   19.49 1094.55   21.94
 1345.21   24.32 1675.20   33.15 1977.69   36.02 2273.62   38.62 2404.20   39.72
 2401.57   39.70 2301.18   38.86 1991.47   36.15 1765.09   34.03 1387.14   30.17
 1137.80   27.32  897.64   24.27  742.78   22.08  634.51   20.40  582.02   19.54
  538.06   18.79  558.40   19.14  607.61   19.97  638.45   20.47  761.15   22.35
  933.73   24.75 1157.48   27.56 1491.47   31.28 1916.67   35.46 2405.51   39.73
 2969.82   44.14 3375.33   47.06 3543.96   48.22 3511.15   48.00 3200.79   45.83
 2807.09   42.92 2367.45   39.41 2011.81   36.33 1667.32   33.08 1414.70   30.47
 1227.03   28.37 1097.77   26.84 1053.81   26.30 1036.09   26.07  937.01   24.80
  965.22   25.17  937.01   24.80  849.08   23.60  820.87   23.21  742.13   22.07
  673.23   21.02  616.80   20.12  547.24   18.95  553.15   19.05  489.50   17.92
  445.30   13.83  435.42   13.68  440.58   13.76  419.08   13.42  442.73   13.79
  446.88   16.48  472.41   16.95  460.86   16.74  562.40   18.49  633.53   19.63
  653.59   19.93  741.15   21.23  789.18   21.90  843.90   22.65  803.77   22.11
  781.27   21.79  734.46   21.13  657.85   20.00  583.07   18.83  541.72   18.15
  502.20   17.47  463.29   16.78  446.27   16.47  441.40   16.38  393.37   15.47
  397.63   15.55  377.56   15.15  386.68   15.33  372.09   15.04  386.08   15.32
  366.01   14.92  355.68   14.71  400.06   15.60  401.88   15.63  373.92   15.08
  365.41   14.91  383.64   15.27  370.27   15.00  412.22   15.83  409.79   15.78
  382.43   15.25  375.13   15.10  382.43   15.25  386.68   15.33  399.45   15.58
  377.56   15.15  380.00   15.20  409.18   15.77  375.13   15.10  345.34   14.49
  448.70   16.52  419.52   15.97  406.75   15.73  387.29   15.35  417.20   12.99
  425.70   13.12  409.10   12.87  396.16   12.66  403.44   12.78  420.03   13.04
  383.06   15.33  373.85   15.15  412.52   15.91  405.16   15.77  394.72   15.57
  387.97   15.43  378.15   15.24  397.18   15.61  414.36   15.95  425.41   16.16
  433.39   16.31  483.73   17.23  506.45   17.63  543.28   18.26  595.46   19.12
  686.31   20.53  788.83   22.01  874.16   23.17  907.92   23.61  938.00   24.00
  905.46   23.58  852.67   22.88  755.06   21.53  723.76   21.08  659.91   20.13
  556.17   18.48  526.09   17.97  466.54   16.92  447.51   16.57  413.75   15.94
  441.99   16.47  453.04   16.68  469.00   16.97  471.45   17.01  498.47   17.49
  553.10   18.43  564.15   18.61  586.86   18.98  572.13   18.74  557.40   18.50
  551.87   18.41  529.16   18.02  540.82   18.22  484.35   17.24  441.99   16.47
  426.03   16.17  418.05   16.02  385.51   15.38  430.94   16.26  394.52   12.60
  401.37   12.71  359.50   12.03  399.76   12.69  400.24   15.43  393.70   15.30
  413.32   15.68  385.96   15.15  357.42   14.58  389.53   15.22  370.50   14.84
  400.83   15.44  405.59   15.53  372.29   14.88  407.97   15.58  378.83   15.01
  380.61   15.05  355.63   14.54  368.12   14.80  377.64   14.99  375.85   14.95
  382.99   15.09  367.53   14.78  391.32   15.26  391.91   15.27  367.53   14.78
  384.78   15.13  384.78   15.13  394.29   15.31  358.61   14.60  378.83   15.01
  375.85   14.95  385.96   15.15  396.07   15.35  398.45   15.39  396.07   15.35
  380.61   15.05  407.37   15.56  393.70   15.30  381.21   15.06  420.46   15.81
  416.89   15.75  418.08   15.77  391.91   15.27  446.63   16.30  454.36   16.44
  457.33   16.49  508.47   17.39  506.10   17.35  538.80   17.90  617.31   19.16
  654.77   19.73  739.22   20.97  789.77   21.67  893.90   19.05  989.75   20.05
 1098.59   21.12 1270.79   22.72 1297.88   28.17 1301.54   28.21 1325.39   28.47
 1178.66   26.84 1146.87   26.48 1005.04   24.79  879.72   23.19  841.20   22.68
  710.99   20.85  599.72   19.15  508.02   17.62  502.52   17.53  479.90   17.13
  412.65   15.88  400.43   15.65  414.49   15.92  399.21   15.62  399.82   15.63
  391.87   15.48  423.66   16.09  391.87   15.48  391.26   15.47  402.87   15.69
  370.47   15.05  413.88   15.91  450.56   16.60  404.71   15.73  426.72   16.15
  451.17   16.61  498.85   17.46  486.63   17.25  468.90   16.93  521.47   17.85
  525.14   17.92  583.22   18.88  536.15   18.10  588.11   18.96  525.75   17.93
  517.19   17.78  512.30   17.70  487.24   17.26  493.35   17.37  476.85   17.07
  423.05   16.08  418.16   15.99  424.88   16.12  426.72   16.15  388.20   15.41
  408.99   15.81  425.26   13.13  452.82   13.55  441.88   13.38  465.39   13.74
  477.55   13.91  504.71   14.30  551.57   18.50  631.61   19.80  592.52   19.17
  606.79   19.40  680.01   20.54  646.50   20.03  601.83   19.32  580.11   18.97
  555.30   18.56  521.79   17.99  472.16   17.12  507.52   17.75  467.81   17.04
  429.97   16.33  382.81   15.41  412.60   16.00  413.22   16.01  384.68   15.45
  414.46   16.04  394.60   15.65  393.36   15.62  430.59   16.34  394.60   15.65
  402.67   15.81  370.40   15.16  384.05   15.44  381.57   15.39  388.40   15.52
  389.64   15.55  400.81   15.77  396.46   15.68  402.05   15.79  433.07   16.39
  421.28   16.17  453.54   16.77  417.56   16.10  449.82   16.71  425.00   16.24
  487.67   17.39  493.87   17.50  528.00   18.10  610.52   19.46  633.47   19.83
  619.20   19.60  665.74   20.32  678.14   20.51  717.23   21.10  827.05   22.65
  874.68   18.93  891.89   19.12  895.17   19.15  876.32   18.95  875.91   18.95
  810.74   18.23  719.71   20.83  685.96   20.33  626.28   19.43  617.24   19.29
  552.74   18.25  553.95   18.27  566.61   18.48  550.93   18.22  569.62   18.53
  584.69   18.77  633.51   19.54  693.79   20.45  757.08   21.36  843.88   22.55
  837.25   22.46  868.60   22.88  877.03   22.99  833.63   22.42  763.71   21.46
  729.96   20.98  717.30   20.79  628.69   19.47  556.36   18.31  517.18   17.66
  497.89   17.32  487.64   17.14  445.45   16.39  444.24   16.36  453.89   16.54
  473.78   16.90  447.86   16.43  474.98   16.92  477.40   16.96  458.11   16.62
  496.68   17.30  468.96   16.81  481.62   17.04  492.47   17.23  515.97   17.64
  492.47   17.23  509.34   17.52  518.99   17.69  577.46   18.66  591.92   18.89
  650.99   19.81  742.62   21.16  825.20   22.30  932.86   19.22 1108.73   20.96
 1214.89   21.94 1380.87   23.39 1517.92   24.52 1651.42   25.58 1685.86   31.55
 1680.54   31.50 1588.43   30.63 1516.39   29.92 1408.92   28.84 1291.41   27.61
 1159.73   26.17  977.86   24.03  850.90   22.42  751.70   21.07  667.26   19.85
  604.07   18.89  559.20   18.17  513.73   17.42  465.31   16.58  453.50   16.36
  435.78   16.04  409.80   15.56  395.63   15.28  401.54   15.40  395.63   15.28
  412.16   15.60  397.99   15.33  380.87   15.00  425.16   15.84  399.17   15.35
  404.49   15.45  376.14   14.90  409.21   15.54  386.77   15.11  409.21   15.54
  372.60   14.83  409.21   15.54  415.12   15.66  370.83   14.80  388.54   15.15
  406.85   15.50  383.23   15.04  372.01   14.82  412.16   15.60  412.16   15.60
  382.64   15.03  385.00   15.08  408.03   15.52  392.09   15.22  429.29   15.92
  400.94   15.39  382.64   15.03  400.94   15.39  397.67   12.52  408.32   12.69
  396.89   12.51  386.24   12.34  402.40   12.59  395.50   15.21  395.50   15.21
  415.39   15.59  401.35   15.32  377.36   14.86  383.21   14.97  407.20   15.43
  386.13   15.03  393.15   15.17  391.98   15.14  436.45   15.98  430.01   15.86
  418.31   15.64  403.69   15.37  388.47   15.08  390.23   15.11  455.17   16.32
  459.85   16.40  497.88   17.07  513.09   17.33  539.42   17.76  607.87   18.86
  620.16   19.05  652.33   19.54  790.99   21.51  820.83   21.91  946.03   23.53
 1044.90   24.72 1157.23   26.02 1306.42   27.65 1366.68   28.28 1448.59   29.11
 1515.28   29.77 1503.00   29.65 1460.29   29.23 1419.34   28.82 1376.04   28.37
 1321.63   27.81 1205.79   26.56 1072.40   25.05  910.34   23.08  825.51   21.98
  730.14   20.67  704.40   20.30  682.17   19.98  634.20   19.26  610.21   18.89
  575.11   18.34  577.57   15.16  616.15   15.66  643.99   16.01  671.84   16.35
  684.57   16.50  692.14   20.49  686.08   20.40  684.87   20.38  656.35   19.95
  661.81   20.04  619.35   19.38  622.99   19.44  624.20   19.46  532.00   17.96
  537.46   18.06  498.64   17.39  468.91   16.87  451.32   16.55  467.70   16.84
  425.24   16.06  387.02   15.32  394.30   15.47  410.07   15.77  423.42   16.03
  402.18   15.62  377.31   15.13  417.35   15.91  406.43   15.70  404.61   15.67
  417.35   15.91  425.84   16.07  393.69   15.45  432.51   16.20  431.91   16.19
  393.08   15.44  422.81   16.02  419.17   15.95  424.02   16.04  416.14   15.89
  478.62   17.04  468.30   16.85  468.30   16.85  457.39   16.66  511.98   17.62
  565.97   18.53  559.90   18.43  618.74   19.37  672.73   20.20  739.46   21.18
  811.04   22.18  894.75   23.30 1051.26   25.25 1144.07   26.34 1205.94   27.05
 1258.72   27.63 1302.36   22.89 1289.89   22.78 1310.81   22.96 1266.57   22.57
 1203.82   22.00 1097.72   25.85  984.47   24.48  892.54   23.31  802.44   22.10
  703.81   20.70  635.01   19.66  578.39   18.77  600.30   19.12  512.02   17.66
  494.98   17.36  474.28   16.99  440.18   16.37  426.79   16.12  434.70   16.27
  417.66   15.95  434.70   16.27  397.56   15.56  417.66   15.95  420.09   15.99
  417.66   15.95  438.96   16.35  414.61   15.89  449.92   16.55  437.14   16.31
  491.32   17.30  470.02   16.92  479.76   17.09  547.95   18.26  519.94   17.79
  580.82   18.80  637.44   19.70  671.54   20.22  636.83   19.69  676.41   20.29
  718.42   20.91  711.11   20.81  718.42   20.91  702.59   20.68  694.67   20.57
  673.36   20.25  712.33   20.83  709.89   20.79  706.85   20.74  736.07   21.17
  722.68   20.98  831.66   22.50  787.21   21.89  938.20   23.90  983.87   24.47
 1049.54   20.40 1075.31   20.64 1131.59   21.18 1119.70   21.07 1150.01   25.87
 1169.21   26.09 1132.55   25.67 1068.53   24.94 1026.04   24.44 1011.49   24.26
  966.68   23.72  895.10   22.82  846.21   22.19  747.85   20.86  712.93   20.37
  689.66   20.03  632.04   19.18  561.62   18.08  579.66   18.37  523.79   17.46
  505.75   17.16  525.53   17.49  485.38   16.81  464.43   16.44  444.64   16.09
  416.12   15.56  419.61   15.63  408.56   15.42  410.30   15.45  398.66   15.23
  403.32   15.32  422.52   15.68  408.56   15.42  396.92   15.20  412.05   15.49
  455.11   16.27  421.36   15.66  385.86   14.99  426.60   15.76  412.63   15.50
  448.71   16.16  448.13   16.15  505.75   17.16  478.39   16.69  490.62   16.90
  522.04   17.43  553.47   17.95  565.69   18.14  592.46   18.57  607.01   18.80
  594.21   18.60  619.23   18.98  602.94   18.73  608.18   18.81  627.19   15.81
  584.53   15.27  582.14   15.24  572.17   15.10  580.54   15.21  578.96   18.62
  556.20   18.25  554.41   18.22  598.11   18.92  619.07   19.25  620.27   19.27
  671.16   20.05  668.16   20.00  734.02   20.96  751.98   21.22  822.63   22.19
  912.44   23.37  991.47   24.36 1147.73   26.21 1250.11   27.36 1432.12   29.28
 1580.60   30.76 1856.01   33.33 1971.56   34.36 2202.66   36.31 2312.83   37.21
 2379.28   37.74 2470.89   38.46 2519.38   38.84 2418.20   38.05 2364.92   37.63
 2245.77   36.67 2155.96   35.93 1969.77   34.34 1720.10   32.09 1478.82   29.76
 1384.82   28.79 1172.28   26.49 1090.26   25.55  922.62   23.50  850.77   22.57
  740.61   21.06  676.55   20.13  604.70   19.03  580.15   18.64  538.24   17.95
  510.10   17.48  466.40   16.71  462.21   16.64  450.23   16.42  455.62   16.52
  416.11   15.78  438.26   16.20  457.42   16.55  453.89   13.65  476.07   13.98
  513.45   14.52  527.01   14.71  538.92   14.88  539.90   18.64  570.79   19.17
  571.43   19.18  579.15   19.31  600.39   19.66  574.65   19.23  599.74   19.65
  564.99   19.07  592.02   19.52  554.05   18.88  529.60   18.46  503.86   18.01
  482.63   17.62  489.06   17.74  467.18   17.34  427.28   16.58  480.69   17.59
  418.28   16.41  467.18   17.34  436.94   16.77  447.23   16.96  427.28   16.58
  433.08   16.69  442.73   16.88  398.97   16.02  434.36   16.72  415.70   16.36
  422.78   16.49  415.70   16.36  415.06   16.34  427.28   16.58  430.50   16.64
  445.30   16.93  442.08   16.87  439.51   16.82  432.43   16.68  474.90   17.48
  441.44   16.85  503.86   18.01  519.95   18.29  505.15   18.03  539.90   18.64
  572.07   19.19  599.10   19.63  642.86   20.34  602.32   19.69  651.22   20.47
  664.74   20.68  638.89   16.28  660.86   16.55  662.11   16.57  649.25   16.41
  682.01   16.82  652.99   16.45  607.80   19.36  646.63   19.97  587.46   19.03
  597.93   19.20  577.59   18.87  560.33   18.59  588.07   19.04  564.65   18.66
  597.93   19.20  566.50   18.69  616.43   19.49  647.87   19.98  664.51   20.24
  745.26   21.43  764.99   21.72  867.31   23.12  956.70   24.28 1001.70   24.85
 1146.56   26.59 1204.50   27.25 1335.18   28.69 1330.25   28.64 1417.17   29.56
 1412.24   29.50 1432.58   29.72 1488.06   30.29 1462.17   30.02 1457.24   29.97
 1402.99   29.41 1332.10   28.66 1300.05   28.31 1243.33   27.68 1114.50   26.21
  986.28   24.66  944.98   24.14  845.74   22.83  839.57   22.75  782.25   21.96
  670.67   20.33  673.14   20.37  675.60   20.41  560.95   18.60  598.55   19.21
  573.28   18.80  546.16   18.35  541.84   18.28  521.50   17.93  515.95   17.83
  491.29   17.40  484.67   13.96  551.84   14.90  538.56   14.72  553.85   14.93
  595.68   15.48  588.27   18.48  624.85   19.05  689.31   20.01  722.42   20.48
  740.42   20.74  752.03   20.90  834.49   22.01  891.99   22.76  879.21   22.60
  932.06   23.27  925.09   23.18  894.31   22.79  929.15   23.23  871.66   22.50
  889.08   22.72  827.53   21.92  873.98   22.53  807.20   21.65  746.23   20.82
  735.77   20.67  691.64   20.04  632.98   19.17  605.69   18.75  588.27   18.48
  585.95   18.45  575.49   18.28  530.20   17.55  513.94   17.28  468.64   16.50
  507.55   17.17  428.57   15.78  427.99   15.77  413.47   15.50  432.64   15.85
  442.51   16.03  451.80   16.20  437.28   15.94  387.92   15.01  417.54   15.57
  430.31   15.81  415.21   15.53  397.21   15.19  443.67   16.05  417.54   15.57
  412.89   15.48  433.80   15.87  414.05   15.51  451.80   16.20  421.02   15.64
  446.76   13.12  462.95   13.36  458.71   13.30  467.19   13.42  478.04   16.59
  483.23   16.68  473.43   16.51  521.81   17.34  512.02   17.17  521.81   17.34
  569.04   18.10  601.30   18.61  622.61   18.94  694.02   19.99  761.99   20.95
  791.94   21.36  847.23   22.09  934.77   23.20  874.87   22.45  946.87   23.35
  958.39   23.49 1023.47   24.28 1026.93   24.32 1017.13   24.20 1015.98   24.19
 1043.05   24.51  987.19   23.84 1017.13   24.20  958.96   23.50  921.53   23.04
  876.60   22.47  820.16   21.73  766.59   21.01  722.82   20.40  669.26   19.63
  678.47   19.77  602.45   18.63  613.97   18.80  603.60   18.65  552.34   17.84
  536.79   17.58  535.64   17.56  513.75   17.20  523.54   17.36  512.60   17.18
  524.12   17.37  517.78   17.27  547.16   17.75  568.47   18.09  585.17   18.36
  627.21   19.01  627.79   19.02  643.92   19.26  733.84   17.26  746.02   17.40
  809.34   18.12  851.95   18.60  834.09   18.40  910.81   19.23  928.90   24.10
  961.40   24.51  983.28   24.79 1028.29   25.35 1064.54   25.80 1025.16   25.31
 1057.67   25.71 1023.91   25.30 1006.41   25.08 1029.54   25.37  957.02   24.46
  950.15   24.37  917.64   23.95  884.51   23.51  843.88   22.97  900.14   23.72
  862.01   23.21  811.38   22.52  835.76   22.86  868.89   23.31  867.64   23.29
  916.39   23.93  902.02   23.75  973.90   24.67 1047.66   25.59 1018.28   25.23
 1072.67   25.89 1142.68   26.73 1054.54   25.67 1168.93   27.03 1130.80   26.59
 1139.55   26.69 1160.18   26.93 1092.67   26.13 1109.55   26.34 1122.05   26.48
 1031.41   25.39 1045.16   25.56  981.40   24.77  912.02   23.88  850.13   23.05
  805.13   22.43  782.62   22.12  716.99   21.17  669.48   20.46  628.22   19.82
  586.34   19.14  569.46   18.87  570.09   18.88  528.83   18.18  501.95   17.71
  481.33   17.35  464.45   17.04  461.32   16.98  415.12   23.89  431.62   24.36
  424.74   24.16  421.99   24.08  393.13   23.25  452.23   24.93  448.11   24.82
  467.35   25.35  476.98   25.61  438.49   24.55  442.61   24.67  416.49   23.93
  463.23   25.23  439.86   24.59  430.24   24.32  503.09   26.30  514.09   26.58
  460.48   25.16  558.08   27.70  526.46   26.90  573.20   28.07  560.82   27.76
  531.96   27.04  548.45   27.46  551.20   27.53  538.83   27.22  596.56   28.64
  599.31   28.70  578.69   28.20  608.93   28.93  567.70   27.93  584.19   28.34
  531.96   27.04  548.45   27.46  560.82   27.76  515.46   26.62  526.46   26.90
  555.33   27.63  500.34   26.23  520.96   26.76  490.72   25.97  505.84   26.37
  486.60   25.86  537.46   27.18  501.72   26.26  486.60   25.86  454.98   25.01
  540.21   27.25  505.84   26.37  518.21   26.69  538.83   27.22  454.98   25.01
  540.21   27.25                                                                