                                                                                
BANK 1 2431 487 CONST  602.500    5.000 0 0 ESD                                 
  545.82   24.89  535.60   24.65  515.18   24.18  506.10   23.96  588.94   25.85
  543.55   24.84  511.77   24.10  482.27   23.39  521.99   24.34  516.31   24.21
  442.55   22.41  498.16   23.78  516.31   24.21  532.20   24.57  501.56   23.86
  544.68   24.86  509.50   24.04  503.83   23.91  569.65   25.42  491.35   23.61
  506.10   23.96  482.27   23.39  489.08   23.56  487.94   23.53  494.75   23.69
  531.06   24.55  493.62   23.67  461.84   22.89  498.16   23.78  480.00   23.34
  494.75   23.69  425.53   21.97  515.18   24.18  487.94   23.53  447.09   22.52
  503.83   23.91  485.67   23.48  506.10   23.96  516.31   24.21  502.70   23.88
  492.48   23.64  500.43   23.83  474.33   23.20  482.27   23.39  482.27   23.39
  502.70   23.88  466.38   23.00  464.11   22.95  468.65   23.06  486.81   23.50
  494.75   23.69  469.79   23.09  508.69   16.96  507.56   16.94  458.39   16.10
  510.39   16.98  467.99   16.26  461.78   16.16  522.26   17.18  503.60   16.87
  480.99   16.49  486.65   16.58  477.04   16.42  487.21   16.59  476.47   16.41
  493.99   16.71  492.86   16.69  458.95   16.11  491.17   16.66  479.30   16.46
  463.47   16.19  510.95   16.99  500.21   16.81  483.26   16.53  470.82   16.31
  492.86   16.69  474.21   16.37  471.39   16.32  521.69   17.17  490.04   16.64
  489.47   16.63  469.13   16.28  474.78   16.38  480.43   16.48  479.86   16.47
  462.91   16.18  467.99   16.26  484.95   16.56  488.34   16.61  493.43   16.70
  478.73   16.45  449.34   15.94  480.43   16.48  469.13   16.28  488.91   16.62
  439.73   15.77  479.86   16.47  504.73   16.89  470.82   16.31  484.39   16.55
  474.21   16.37  473.08   16.35  479.86   16.47  486.08   16.58  478.17   16.44
  453.27   13.00  489.42   13.51  481.60   13.40  487.93   13.49  490.54   13.52
  473.39   13.28  496.51   13.60  474.14   13.29  475.71   16.25  486.82   16.44
  522.90   17.04  465.17   16.07  482.93   16.37  479.60   16.32  495.70   16.59
  470.16   16.16  479.60   16.32  469.61   16.15  434.08   15.52  482.38   16.36
  486.26   16.43  484.04   16.39  450.18   15.81  472.94   16.20  469.61   16.15
  457.95   15.94  496.81   16.61  490.15   16.49  468.50   16.13  479.05   16.31
  469.05   16.14  499.58   16.65  439.08   15.61  486.82   16.44  470.72   16.16
  519.57   16.98  480.71   16.34  476.82   16.27  446.29   15.74  475.71   16.25
  470.72   16.16  464.06   16.05  458.51   15.95  492.92   16.54  484.60   16.40
  481.27   16.34  486.26   16.43  492.37   16.53  439.63   15.62  457.40   15.93
  475.16   16.24  473.49   16.21  446.85   15.75  467.39   16.11  464.06   16.05
  488.39   13.47  460.17   13.07  477.25   13.31  444.57   12.85  450.88   12.94
  445.55   15.71  436.69   15.56  481.57   16.34  492.10   16.51  490.99   16.50
  494.87   16.56  427.27   15.39  461.07   15.98  440.57   15.63  454.97   15.88
  488.22   16.45  453.31   15.85  449.99   15.79  463.84   16.03  458.85   15.95
  467.72   16.10  466.61   16.08  451.09   15.81  472.15   16.18  444.44   15.69
  456.08   15.90  442.78   15.66  486.01   16.41  464.95   16.05  443.89   15.68
  458.30   15.94  502.63   16.69  476.59   16.25  456.08   15.90  442.78   15.66
  454.42   15.87  436.69   15.56  447.77   15.75  423.39   15.32  433.92   15.51
  453.31   15.85  454.97   15.88  481.57   16.34  432.81   15.49  442.23   15.65
  446.11   15.72  506.51   16.75  454.42   15.87  468.27   16.11  476.59   16.25
  445.55   15.71  443.34   15.67  438.90   15.60  434.47   15.52  436.69   15.56
  447.28   12.86  439.89   12.75  440.26   12.76  481.65   16.40  473.84   16.26
  476.07   16.30  456.54   15.96  462.12   16.06  466.58   16.14  449.84   15.84
  445.93   15.78  488.91   16.52  471.61   16.22  428.07   15.46  485.00   16.45
  459.89   16.02  445.93   15.78  466.02   16.13  470.49   16.20  474.95   16.28
  521.28   17.06  503.98   16.77  507.33   16.83  537.46   17.32  544.72   17.44
  579.88   17.99  583.23   18.04  608.90   18.43  687.04   19.58  753.45   20.51
  843.87   21.70  953.82   23.07 1112.88   24.92 1309.33   27.03 1576.11   29.66
 1852.38   32.15 2108.55   34.30 2271.52   35.61 2239.71   35.36 2107.99   34.30
 1738.52   31.15 1341.15   27.36  968.89   23.25  713.27   19.95  556.44   17.62
  474.40   16.27  438.68   15.65  485.56   16.46  480.54   16.38  453.19   15.90
  426.96   15.44  468.82   16.18  443.14   15.73  434.77   15.58  468.23   13.44
  468.23   13.44  470.54   13.47  447.79   13.14  472.45   16.66  444.84   16.17
  494.78   17.05  455.41   16.36  461.88   16.47  484.80   16.88  490.08   16.97
  500.66   17.15  541.80   17.84  504.77   17.22  565.30   18.23  582.93   18.51
  666.96   19.80  724.55   20.63  821.51   21.97  909.65   23.12 1120.61   25.66
 1382.11   28.50 1610.69   30.77 1940.36   33.77 2106.07   35.18 2265.90   36.49
 2140.15   35.46 1972.68   34.05 1578.96   30.46 1228.15   26.86  879.68   22.74
  679.89   19.99  529.45   17.64  480.68   16.81  440.72   16.09  470.69   16.63
  460.70   16.45  455.41   16.36  471.87   16.65  454.83   16.35  454.24   16.34
  441.90   16.11  448.95   16.24  417.22   15.66  481.27   16.82  448.36   16.23
  438.96   16.06  458.94   16.42  481.27   16.82  446.60   16.20  459.53   16.43
  485.38   16.89  434.26   15.97  438.76   13.19  429.63   13.06  447.88   13.33
  442.73   13.25  446.30   13.31  432.01   13.09  444.44   16.56  453.09   16.72
  429.63   16.29  450.00   16.67  464.20   16.93  458.64   16.83  490.12   17.39
  448.15   16.63  423.46   16.17  462.96   16.91  470.37   17.04  475.31   17.13
  479.63   17.21  509.26   17.73  540.74   18.27  537.04   18.21  582.72   18.97
  638.89   19.86  730.25   21.23  823.46   22.55  904.32   23.63  911.73   23.72
  888.89   23.42  829.01   22.62  734.57   21.29  619.75   19.56  540.74   18.27
  485.19   17.31  468.52   17.01  432.10   16.33  445.68   16.59  456.79   16.79
  467.90   16.99  455.56   16.77  478.40   17.18  429.63   16.29  454.32   16.75
  444.44   16.56  454.94   16.76  451.85   16.70  424.69   16.19  436.42   16.41
  480.25   17.22  445.68   16.59  454.94   16.76  435.19   16.39  437.65   16.44
  469.75   17.03  463.79   14.02  447.27   13.76  465.90   14.05  451.93   13.84
  428.63   13.47  451.08   13.82  445.51   16.90  434.62   16.69  443.59   16.86
  468.59   17.33  450.00   16.98  449.36   16.97  435.26   16.70  458.33   17.14
  453.21   17.04  448.72   16.96  432.05   16.64  450.64   17.00  454.49   17.07
  443.59   16.86  407.69   16.17  443.59   16.86  435.26   16.70  455.77   17.09
  417.95   16.37  442.95   16.85  429.49   16.59  448.08   16.95  431.41   16.63
  448.72   16.96  452.56   17.03  448.08   16.95  438.46   16.76  448.72   16.96
  471.15   17.38  431.41   16.63  448.08   16.95  420.51   16.42  441.67   16.83
  449.36   16.97  448.08   16.95  432.69   16.65  431.41   16.63  421.79   16.44
  417.95   16.37  459.62   17.16  419.23   16.39  415.38   16.32  408.97   16.19
  430.13   16.60  429.49   16.59  417.31   16.36  436.54   16.73  447.44   16.94
  431.41   16.63  430.83   13.33  441.56   13.50  445.27   13.56  436.60   13.42
  433.22   16.43  441.33   16.59  424.50   16.27  416.39   16.11  442.57   16.61
  480.60   17.31  439.46   16.55  444.44   16.64  406.42   15.92  418.26   16.15
  443.82   16.63  417.02   16.12  410.78   16.00  403.30   15.86  395.20   15.70
  418.89   16.16  400.81   15.81  432.60   16.42  423.87   16.25  425.74   16.29
  435.72   16.48  392.71   15.65  423.87   16.25  428.24   16.34  423.25   16.24
  433.22   16.43  423.87   16.25  421.38   16.21  446.31   16.68  433.85   16.44
  445.07   16.66  420.76   16.19  425.74   16.29  403.93   15.87  420.13   16.18
  418.89   16.16  425.74   16.29  408.29   15.95  414.52   16.07  430.73   16.39
  391.46   15.62  405.80   15.90  417.02   16.12  418.26   16.15  417.64   16.13
  435.72   16.48  403.30   15.86  447.56   16.70  432.60   16.42  425.00   13.12
  434.72   13.27  422.16   13.08  409.20   12.88  428.24   13.17  433.64   15.84
  432.48   15.82  387.90   14.99  415.69   15.51  415.69   15.51  427.27   15.73
  464.32   16.40  441.74   15.99  433.64   15.84  429.58   15.77  414.53   15.49
  427.27   15.73  419.74   15.59  431.90   15.81  425.53   15.70  433.06   15.83
  416.85   15.53  442.32   16.00  430.16   15.78  433.06   15.83  444.64   16.04
  415.11   15.50  406.43   15.34  433.64   15.84  422.64   15.64  431.90   15.81
  412.79   15.46  435.95   15.89  434.22   15.86  404.11   15.30  415.69   15.51
  445.80   16.07  417.43   15.55  423.80   15.66  425.53   15.70  402.37   15.26
  435.95   15.89  429.01   15.76  459.11   16.30  449.27   16.13  428.43   15.75
  435.95   15.89  429.01   15.76  402.95   15.27  411.64   15.44  453.90   16.21
  421.48   15.62  441.74   15.99  415.11   15.50  421.48   15.62  420.25   12.81
  432.74   12.99  453.42   13.30  414.01   12.71  425.71   12.89  433.66   15.97
  434.83   16.00  443.66   16.16  409.53   15.52  460.72   16.46  438.36   16.06
  426.01   15.83  428.36   15.88  442.48   16.14  416.00   15.65  394.23   15.23
  415.42   15.63  440.72   16.10  407.77   15.49  416.00   15.65  406.00   15.46
  416.59   15.66  420.12   15.72  411.89   15.57  454.84   16.36  419.54   15.71
  421.30   15.74  409.53   15.52  418.95   15.70  466.61   16.57  452.49   16.32
  489.56   16.97  514.27   17.40  606.06   18.88  677.85   19.97  802.59   21.73
  987.35   24.10 1140.34   25.90 1276.26   27.40 1346.87   28.15 1364.52   28.34
 1186.82   26.43  993.23   24.17  769.05   21.27  603.12   18.84  481.91   16.84
  452.49   16.32  435.42   16.01  408.94   15.51  430.13   15.91  440.72   16.10
  401.88   15.38  431.89   15.94  452.60   13.26  435.90   13.01  431.24   12.94
  452.60   13.26  435.51   13.01  404.68   15.38  416.37   15.60  429.24   15.84
  419.30   15.66  398.83   15.27  401.17   15.32  404.09   15.37  428.07   15.82
  433.92   15.93  459.65   16.40  422.81   15.72  433.92   15.93  421.05   15.69
  408.19   15.45  419.30   15.66  408.19   15.45  387.72   15.06  411.11   15.51
  423.39   15.74  428.65   15.83  401.17   15.32  449.71   16.22  408.19   15.45
  430.41   15.87  408.19   15.45  426.90   15.80  395.32   15.20  418.71   15.65
  419.30   15.66  446.78   16.16  417.54   15.63  439.18   16.03  402.34   15.34
  439.77   16.04  455.56   16.32  466.67   16.52  474.27   16.65  519.88   17.44
  538.01   17.74  579.53   18.41  665.50   19.73  736.84   20.76  780.12   21.36
  815.20   21.83  953.22   23.61 1132.75   25.74 1340.35   28.00 1689.47   31.43
 2026.90   34.43 2285.94   29.89 2326.59   30.16 2263.66   29.75 1931.40   27.48
 1481.48   24.06 1108.57   20.82  799.88   21.55  633.29   19.17  543.32   17.76
  447.54   16.12  445.80   16.09  500.94   17.05  415.61   15.53  419.10   15.60
  455.09   16.25  431.87   15.83  416.20   15.54  448.70   16.14  433.61   15.86
  466.70   16.46  420.84   15.63  437.09   15.93  506.75   17.15  456.83   16.28
  517.20   17.33  567.70   18.15  725.58   20.52  934.55   23.29 1392.54   28.43
 2130.90   35.17 3315.63   43.87 5061.09   54.20 7575.68   66.3110680.60   78.74
13407.63   88.2215272.09   94.1515625.02   95.2413741.40   89.3110808.88   79.21
 7662.75   66.69 4727.91   52.39 2747.35   39.93 1436.66   28.88  804.53   21.61
  585.11   18.43  508.49   17.18  491.08   16.88  489.91   16.86  475.40   16.61
  511.97   17.24  552.60   17.91  663.47   19.62  747.64   20.83  940.64   19.71
 1244.55   22.67 1569.94   25.46 1901.52   28.02 2037.78   29.01 2093.53   29.40
 1945.39   35.46 1567.94   31.83 1247.37   28.39  911.94   24.28  681.21   20.98
  547.42   18.81  495.07   17.89  455.00   17.15  458.88   17.22  409.76   16.27
  435.61   16.78  423.33   16.54  412.34   16.32  427.21   16.62  446.60   16.99
  411.70   16.31  430.44   16.68  415.58   16.39  412.34   16.32  451.77   17.09
  478.91   17.59  462.11   17.28  467.28   17.38  517.69   18.29  524.80   18.42
  553.24   18.91  575.86   19.29  533.85   18.58  566.17   19.13  526.09   18.44
  535.14   18.60  504.77   18.06  485.38   17.71  478.91   17.59  432.38   16.72
  436.26   16.79  404.59   16.17  417.51   16.43  397.48   16.03  433.03   16.73
  378.74   15.65  381.97   15.71  431.73   16.70  441.43   16.89  392.96   15.94
  393.60   15.95  440.78   16.88  405.88   16.20  383.26   15.74  418.60   13.24
  397.23   12.90  397.65   12.91  407.29   13.06  389.69   12.78  386.15   15.84
  426.46   16.65  392.65   15.98  410.21   16.33  418.01   16.48  414.11   16.41
  425.16   16.63  402.41   16.17  394.60   16.02  420.61   16.54  431.01   16.74
  379.00   15.70  406.96   16.27  414.76   16.42  409.56   16.32  403.71   16.20
  396.55   16.06  387.45   15.87  416.71   16.46  408.26   16.29  401.76   16.16
  401.11   16.15  425.16   16.63  426.46   16.65  421.91   16.56  409.56   16.32
  381.60   15.75  416.06   16.45  390.05   15.92  415.41   16.43  423.86   16.60
  416.71   16.46  438.16   16.88  380.30   15.72  412.81   16.38  391.35   15.95
  384.85   15.82  403.71   16.20  418.66   16.50  369.25   15.49  393.30   15.99
  384.85   15.82  402.41   16.17  414.76   16.42  395.25   16.03  401.76   16.16
  373.15   15.58  406.31   16.25  403.06   16.19  414.40   13.31  409.27   13.22
  416.11   13.33  377.23   12.69  403.84   15.68  386.78   15.35  390.44   15.42
  388.61   15.39  405.06   15.71  405.06   15.71  406.27   15.73  402.01   15.65
  385.56   15.32  413.58   15.87  359.98   14.81  432.47   16.23  397.14   15.55
  424.55   16.08  395.92   15.53  417.85   15.95  432.47   16.23  405.66   15.72
  394.09   15.49  402.01   15.65  425.77   16.10  429.42   16.17  393.48   15.48
  412.97   15.86  416.63   15.93  375.82   15.13  386.78   15.35  383.13   15.28
  389.22   15.40  417.85   15.95  429.42   16.17  433.68   16.25  424.55   16.08
  446.47   16.49  504.34   17.53  514.09   17.70  607.89   19.24  716.92   20.90
  799.15   22.06  825.95   22.43  843.61   22.67  806.46   22.16  726.66   21.04
  592.05   18.99  543.32   18.19  484.85   17.18  420.89   16.01  396.53   15.54
  418.46   15.97  408.10   15.77  403.24   12.70  409.64   12.80  408.04   12.78
  406.84   12.76  401.24   12.67  405.90   15.63  419.15   15.89  427.58   16.05
  428.79   16.07  500.45   17.36  601.02   19.03  749.17   21.24  992.47   24.45
 1266.49   27.62 1682.02   31.83 2007.23   34.77 2275.22   37.02 2266.79   36.95
 2059.62   35.22 1679.01   31.80 1290.58   27.88  922.01   23.56  701.60   20.56
  562.48   18.40  442.04   16.32  424.57   15.99  408.31   15.68  387.83   15.28
  434.81   16.18  421.56   15.93  404.10   15.60  417.95   15.87  398.07   15.48
  401.69   15.55  406.50   15.65  396.27   15.45  384.82   15.22  383.62   15.20
  392.65   15.38  381.21   15.15  396.87   15.46  381.21   15.15  390.24   15.33
  405.90   15.63  407.11   15.66  400.48   15.53  384.82   15.22  405.90   15.63
  399.28   15.51  383.02   15.19  389.64   15.32  385.43   15.24  405.90   15.63
  401.08   15.54  399.75   12.80  392.78   12.69  389.09   12.63  382.12   12.52
  396.88   12.76  366.03   14.96  387.41   15.39  424.08   16.10  392.91   15.49
  403.91   15.71  413.69   15.90  428.35   16.18  452.80   16.63  440.57   16.41
  483.35   17.19  538.34   18.14  560.34   18.50  611.67   19.33  737.55   21.23
  860.98   22.94 1116.41   26.12 1607.70   31.34 2259.09   37.15 2918.42   42.23
 3498.32   46.24 3806.29   48.23 3723.19   47.70 3359.61   45.31 2758.33   41.05
 2001.83   34.97 1472.66   30.00  999.08   24.71  713.72   20.88  551.79   18.36
  465.63   16.87  431.41   16.24  411.85   15.86  416.13   15.95  397.80   15.59
  384.36   15.33  435.69   16.32  379.47   15.23  370.30   15.04  382.52   15.29
  375.80   15.15  380.08   15.24  399.02   15.61  378.25   15.20  401.47   15.66
  377.02   15.18  395.97   15.56  369.08   15.02  406.97   15.77  402.08   15.67
  389.86   12.65  413.26   13.02  400.53   12.82  421.05   13.15  399.30   12.80
  388.28   15.68  419.32   16.30  430.72   16.52  458.59   17.04  514.96   18.06
  615.68   19.75  751.86   21.82 1005.23   25.23 1344.10   29.18 1580.36   31.64
 1767.85   33.46 1827.40   34.02 1675.38   32.58 1488.52   30.71 1121.77   26.66
  893.11   23.78  692.95   20.95  544.73   18.58  447.19   16.83  390.18   15.72
  418.69   16.28  385.75   15.63  393.35   15.78  407.92   16.07  406.02   16.04
  397.78   15.87  371.81   15.35  404.75   16.01  395.88   15.84  437.69   16.65
  436.42   16.63  470.63   17.27  512.43   18.02  540.30   18.50  561.20   18.85
  548.54   18.64  554.87   18.75  520.67   18.16  530.17   18.33  490.89   17.63
  414.89   16.21  434.52   16.59  392.08   15.76  405.38   16.02  409.82   16.11
  375.61   15.42  389.55   15.71  379.41   15.50  385.11   15.62  388.11   12.95
  382.93   12.86  356.13   12.41  375.58   12.74  385.95   12.92  392.77   15.99
  397.98   16.10  400.59   16.15  394.07   16.02  415.57   16.45  401.24   16.17
  379.74   15.73  386.26   15.86  396.03   16.06  396.03   16.06  368.67   15.50
  378.44   15.70  388.21   15.90  383.00   15.79  405.15   16.24  386.91   15.88
  382.35   15.78  374.53   15.62  383.00   15.79  418.17   16.50  375.18   15.63
  412.96   16.40  418.82   16.52  411.66   16.37  374.53   15.62  399.93   16.14
  396.03   16.06  377.79   15.69  400.59   16.15  418.17   16.50  396.03   16.06
  423.38   16.61  445.53   17.04  492.43   17.91  485.26   17.78  579.06   19.42
  620.75   20.11  629.86   20.26  617.49   20.06  598.60   19.75  604.46   19.84
  528.90   18.56  517.18   18.35  444.88   17.02  464.42   17.39  383.00   15.79
  396.68   16.07  371.28   15.55  369.97   15.52  397.65   13.03  387.41   12.86
  371.63   12.59  409.60   13.22  403.63   13.12  367.99   15.44  376.42   15.62
  394.56   15.99  409.46   16.29  379.01   15.67  414.64   16.39  376.42   15.62
  413.35   16.36  417.23   16.44  390.67   15.91  420.47   16.51  412.05   16.34
  386.14   15.82  411.40   16.33  388.08   15.86  417.88   16.45  404.28   16.18
  419.18   16.48  413.99   16.38  409.46   16.29  410.75   16.31  489.15   17.80
  527.37   18.48  590.86   19.57  673.15   20.88  745.71   21.98  771.62   22.36
  818.92   23.03  743.12   21.94  693.23   21.19  637.51   20.32  582.44   19.43
  544.87   18.79  545.51   18.80  504.05   18.07  484.61   17.72  493.68   17.88
  429.54   16.68  428.25   16.66  426.95   16.63  445.74   16.99  451.57   17.10
  434.73   16.78  436.02   16.81  514.42   18.26  620.67   20.05  720.44   21.60
  774.86   22.41  856.49   23.56  942.08   19.81 1045.00   20.87 1055.00   20.97
 1082.08   21.23 1293.33   23.21 1527.93   30.29 2074.47   35.30 2593.39   39.47
 3283.48   44.41 3700.30   47.14 3772.97   47.60 3597.60   46.48 3129.73   43.36
 2430.03   38.20 1925.53   34.01 1373.57   28.72 1012.01   24.65  753.15   21.27
  600.00   18.98  494.89   17.24  429.43   16.06  413.21   15.75  383.18   15.17
  406.61   15.63  383.78   15.18  417.42   15.83  415.02   15.79  374.77   15.00
  390.99   15.32  383.78   15.18  367.57   14.86  381.38   15.13  399.40   15.49
  396.40   15.43  410.81   15.71  402.40   15.55  418.62   15.86  433.63   16.14
  393.39   15.37  399.40   15.49  405.41   15.60  444.44   16.34  455.26   16.54
  518.32   17.64  548.35   18.15  658.86   19.89  713.51   20.70  738.14   21.06
  770.57   21.51  759.16   21.35  717.12   20.75  626.43   19.40  575.98   18.60
  529.77   14.65  467.40   13.76  433.78   13.25  424.87   13.12  397.73   12.69
  391.25   12.59  375.79   15.04  362.54   14.78  364.95   14.83  408.91   15.69
  380.01   15.13  398.68   15.49  365.55   14.84  396.27   15.45  360.73   14.74
  369.77   14.92  396.27   15.45  400.48   15.53  396.87   15.46  505.87   17.45
  567.90   18.49  672.69   20.13  815.42   22.16 1017.77   24.76 1221.32   27.12
 1400.18   29.04 1539.30   30.45 1513.40   30.19 1415.24   29.19 1265.88   27.61
 1045.47   25.09  818.43   22.20  718.46   20.80  575.13   18.61  498.64   17.33
  436.62   16.22  412.53   15.76  410.72   15.73  397.47   15.47  381.81   15.16
  330.62   14.11  375.19   15.03  404.10   15.60  383.62   15.20  384.22   15.21
  406.50   15.65  385.43   15.24  392.65   15.38  389.64   15.32  392.05   15.37
  370.97   14.95  386.03   15.25  361.34   14.75  378.80   15.10  375.55   12.36
  388.57   12.57  400.37   12.76  397.92   12.72  415.01   12.99  420.71   13.08
  455.27   16.86  432.16   16.43  457.77   16.91  432.79   16.44  437.16   16.52
  433.41   16.45  403.43   15.87  415.30   16.10  376.58   15.34  392.19   15.65
  384.07   15.49  399.06   15.79  378.45   15.37  381.58   15.44  388.45   15.58
  404.68   15.90  397.81   15.76  370.34   15.21  377.21   15.35  380.95   15.42
  385.95   15.53  361.59   15.03  369.71   15.20  372.21   15.25  369.09   15.18
  399.69   15.80  379.08   15.39  369.71   15.20  399.06   15.79  364.09   15.08
  402.19   15.85  355.97   14.91  363.47   15.07  419.05   16.18  382.83   15.46
  410.93   16.02  417.80   16.15  425.29   16.30  452.77   16.82  452.77   16.82
  448.40   16.73  488.37   17.46  512.72   17.89  551.44   18.56  592.04   19.23
  706.32   21.00  821.86   22.66  924.90   24.03 1058.59   21.22 1372.04   24.16
 1740.35   27.21 2240.09   30.87 2790.86   34.45 3199.22   45.47 3488.12   47.48
 3510.10   47.63 3185.01   45.37 2909.68   43.37 2364.19   39.09 1854.26   34.62
 1352.08   29.56 1107.77   26.76  818.87   23.01  674.10   20.87  533.20   18.56
  445.95   16.98  410.41   16.29  392.31   15.92  394.89   15.98  383.91   15.75
  413.64   16.35  388.43   15.84  356.76   15.18  398.13   16.04  395.54   15.99
  397.48   16.03  409.11   16.26  387.78   15.83  387.14   15.82  365.16   15.36
  387.14   15.82  367.75   15.42  354.18   15.13  397.48   16.03  403.30   16.14
  370.33   15.47  391.02   15.90  425.92   16.59  381.97   15.71  409.76   16.27
  385.20   15.78  367.10   15.40  386.49   15.80  396.83   16.01  374.21   15.55
  381.32   15.70  394.89   15.98  382.61   15.73  396.83   16.01  376.80   15.61
  400.06   16.08  396.19   16.00  406.01   13.50  419.47   13.72  419.47   13.72
  465.68   14.45  510.54   15.13  534.31   19.32  580.41   20.13  698.45   22.09
  919.85   25.35 1078.40   27.44 1408.77   31.37 1632.27   33.76 1827.83   35.73
 1893.49   36.37 1952.16   36.93 1749.61   34.96 1517.72   32.56 1371.05   30.95
 1167.10   28.55  905.19   25.14  812.29   23.82  743.15   22.78  667.71   21.60
  611.14   20.66  542.69   19.47  518.25   19.03  504.28   18.77  426.05   17.25
  447.01   17.67  406.50   16.85  424.66   17.22  411.38   16.95  412.08   16.97
  385.54   16.41  425.35   17.24  372.97   16.14  409.29   16.91  423.26   17.19
  359.70   15.85  413.48   16.99  383.45   16.37  407.89   16.88  386.94   16.44
  386.94   16.44  412.78   16.98  401.61   16.75  398.11   16.68  422.56   17.18
  425.35   17.24  408.59   16.89  447.70   17.68  428.15   17.29  448.40   17.70
  465.17   18.02  495.90   18.61  545.73   15.49  616.09   16.46  685.14   17.36
  839.05   19.21 1006.56   25.70 1263.12   28.79 1624.02   32.64 1935.04   35.63
 2361.55   39.36 2385.17   39.56 2485.56   40.38 2396.98   39.66 2161.42   37.66
 1795.93   34.33 1484.25   31.21 1188.32   27.92  963.25   25.14  761.15   22.35
  625.98   20.27  595.80   19.77  508.53   18.27  531.50   18.67  599.74   19.84
  700.13   21.43  793.31   22.82  958.01   25.07 1175.20   27.77 1542.65   31.82
 2009.19   36.31 2551.18   40.91 3064.96   44.85 3427.17   47.42 3618.77   48.73
 3547.90   48.25 3333.33   46.77 2948.16   43.98 2474.41   40.29 2016.40   36.37
 1599.74   32.40 1381.23   30.11 1236.88   28.49 1125.98   27.18 1018.37   25.85
 1015.75   25.82  971.78   25.25 1003.94   25.67  996.06   25.57  890.42   24.17
  856.96   23.71  764.44   22.40  656.17   20.75  608.92   19.99  547.24   18.95
  489.15   14.50  466.37   14.16  417.37   13.39  409.63   13.27  408.34   13.25
  410.40   15.80  443.23   16.42  443.23   16.42  497.95   17.40  502.81   17.48
  572.73   18.66  634.14   19.64  703.45   20.68  739.32   21.20  808.63   22.17
  849.37   22.72  837.82   22.57  804.99   22.12  721.08   20.94  669.40   20.17
  607.39   19.22  544.76   18.20  487.61   17.22  452.35   16.58  465.72   16.83
  373.31   15.07  389.12   15.38  375.74   15.11  361.15   14.82  352.03   14.63
  398.24   15.56  384.25   15.28  367.84   14.95  389.12   15.38  399.45   15.58
  410.40   15.80  386.68   15.33  367.84   14.95  393.37   15.47  371.49   15.03
  365.41   14.91  376.35   15.13  355.07   14.69  398.24   15.56  322.85   14.01
  355.07   14.69  347.77   14.54  381.82   15.24  381.21   15.22  376.35   15.13
  389.12   15.38  355.68   14.71  401.88   15.63  386.68   15.33  402.23   12.76
  383.21   12.45  403.44   12.78  397.77   12.69  384.83   12.48  411.53   12.90
  379.37   15.26  400.86   15.69  386.13   15.40  388.58   15.44  378.76   15.25
  367.71   15.02  360.96   14.89  399.63   15.66  394.11   15.55  359.73   14.86
  397.79   15.63  414.36   15.95  403.93   15.75  450.58   16.63  459.18   16.79
  473.91   17.06  561.08   18.56  661.76   20.16  710.87   20.89  787.60   21.99
  909.76   23.63  946.59   24.11  920.81   23.78  917.74   23.74  891.96   23.40
  771.03   21.76  695.52   20.66  664.83   20.20  602.21   19.23  520.56   17.88
  488.03   17.31  488.03   17.31  440.15   16.44  435.85   16.36  461.02   16.82
  427.26   16.20  465.93   16.91  511.97   17.73  527.32   17.99  543.28   18.26
  578.27   18.84  564.76   18.62  553.10   18.43  488.03   17.31  459.18   16.79
  445.67   16.54  445.67   16.54  414.98   15.96  396.56   15.60  384.46   12.44
  398.55   12.67  370.77   12.22  366.75   12.15  371.69   14.87  375.85   14.95
  358.61   14.60  369.31   14.82  367.53   14.78  351.47   14.46  363.96   14.71
  396.07   15.35  377.04   14.97  413.92   15.69  354.45   14.52  384.78   15.13
  369.31   14.82  369.91   14.83  382.40   15.08  403.21   15.49  374.67   14.93
  387.75   15.19  336.01   14.14  364.56   14.72  358.61   14.60  363.96   14.71
  407.97   15.58  396.67   15.36  378.23   15.00  372.29   14.88  366.34   14.76
  375.85   14.95  373.48   14.90  365.15   14.74  382.99   15.09  380.02   15.03
  391.91   15.27  353.26   14.49  369.91   14.83  383.59   15.10  397.86   15.38
  362.77   14.69  386.56   15.16  385.96   15.15  384.78   15.13  394.29   15.31
  451.98   16.39  419.86   15.80  458.52   16.51  427.00   15.94  479.33   16.88
  548.91   18.07  612.55   19.09  647.64   19.63  726.17   17.17  766.37   17.64
  875.62   18.86  977.16   19.92 1082.07   25.72 1222.68   27.34 1334.56   28.56
 1333.94   28.56 1354.12   28.77 1297.26   28.16 1196.39   27.04 1124.87   26.22
  968.36   24.33  837.54   22.63  766.62   21.65  648.02   19.90  558.15   18.47
  493.96   17.38  449.34   16.57  448.72   16.56  423.05   16.08  393.70   15.51
  393.09   15.50  404.10   15.72  371.69   15.07  418.16   15.99  364.97   14.94
  380.87   15.26  400.43   15.65  412.04   15.87  395.54   15.55  426.72   16.15
  409.60   15.82  394.93   15.54  427.94   16.17  454.84   16.68  459.73   16.76
  470.73   16.96  513.53   17.72  559.99   18.50  542.26   18.21  548.98   18.32
  550.21   18.34  533.09   18.05  491.52   17.33  506.19   17.59  486.63   17.25
  482.96   17.18  452.39   16.63  440.17   16.40  432.83   16.27  418.16   15.99
  385.14   15.34  437.01   13.31  409.85   12.89  406.61   12.84  399.72   12.73
  439.44   13.35  446.34   13.45  462.23   16.93  507.52   17.75  534.20   18.21
  593.76   19.19  599.97   19.29  649.60   20.08  643.40   19.98  637.20   19.88
  583.22   19.02  616.10   19.55  551.57   18.50  556.54   18.58  495.11   17.53
  488.91   17.42  460.99   16.91  417.56   16.10  432.45   16.38  403.29   15.82
  393.98   15.63  390.88   15.57  373.51   15.22  394.60   15.65  389.64   15.55
  384.05   15.44  375.99   15.27  364.82   15.04  370.40   15.16  388.40   15.52
  402.67   15.81  370.40   15.16  367.92   15.11  415.70   16.06  364.20   15.03
  361.72   14.98  380.33   15.36  385.30   15.46  398.95   15.73  404.53   15.84
  413.84   16.02  428.11   16.30  452.92   16.76  472.16   17.12  515.59   17.89
  501.32   17.64  544.13   18.37  625.41   19.70  626.03   19.71  684.97   20.62
  758.68   17.63  757.86   17.62  806.23   18.18  866.48   18.85  858.28   18.76
  876.73   18.96  908.98   23.41  879.45   23.02  795.66   21.90  757.69   21.37
  716.09   20.78  618.44   19.31  567.81   18.50  582.88   18.74  541.29   18.06
  522.00   17.74  537.07   17.99  564.20   18.44  572.03   18.57  634.12   19.55
  691.38   20.41  767.33   21.51  781.80   21.71  855.33   22.71  825.80   22.31
  819.17   22.22  814.95   22.16  793.25   21.87  760.10   21.40  682.94   20.29
  677.52   20.21  609.40   19.17  559.98   18.37  471.97   16.87  496.68   17.30
  464.14   16.73  481.62   17.04  446.65   16.41  415.91   15.83  416.52   15.85
  459.92   16.65  490.05   17.19  441.83   16.32  463.53   16.72  476.19   16.94
  485.23   17.10  497.29   17.31  492.47   17.23  496.68   17.30  511.15   17.55
  543.70   18.10  583.48   18.75  617.24   19.29  666.27   16.25  734.80   17.06
  822.34   18.05  970.49   19.61 1118.24   21.05 1239.85   22.16 1432.54   29.08
 1533.51   30.09 1661.65   31.32 1740.18   32.06 1708.30   31.76 1592.56   30.67
 1632.12   31.04 1460.29   29.36 1299.68   27.70 1199.29   26.61 1049.90   24.90
  863.30   22.58  746.38   20.99  687.33   20.15  593.45   18.72  492.47   17.05
  498.97   17.16  439.92   16.12  413.94   15.63  414.53   15.65  374.96   14.88
  387.36   15.12  392.68   15.23  377.33   14.93  373.19   14.84  364.33   14.67
  370.24   14.79  371.42   14.81  405.67   15.48  391.50   15.20  366.11   14.70
  380.87   15.00  385.59   15.09  391.50   15.20  392.09   15.22  367.88   14.74
  359.61   14.57  381.46   15.01  373.19   14.84  340.71   14.18  377.33   14.93
  385.00   15.08  384.41   15.07  377.33   14.93  383.23   15.04  376.14   14.90
  363.74   14.66  347.80   14.33  395.63   15.28  375.60   12.17  376.79   12.19
  362.99   11.96  381.12   12.26  400.43   12.56  379.11   14.89  386.13   15.03
  389.64   15.10  372.09   14.75  377.36   14.86  375.02   14.81  373.85   14.79
  397.25   15.25  368.58   14.68  403.10   15.36  380.28   14.92  365.07   14.61
  379.11   14.89  372.68   14.77  376.77   14.85  387.30   15.05  391.98   15.14
  408.95   15.47  425.92   15.79  426.50   15.80  425.33   15.77  466.29   16.52
  510.17   17.28  524.79   17.52  592.66   18.62  622.50   19.08  677.49   19.91
  737.75   20.78  828.43   22.02  926.14   23.28 1067.13   24.99 1223.34   26.75
 1338.60   27.98 1408.22   28.70 1512.94   29.75 1521.72   29.84 1552.73   30.14
 1566.18   30.27 1545.71   30.07 1412.90   28.75 1283.60   27.40 1214.57   26.66
 1125.05   25.66  982.30   23.97  902.15   22.97  788.65   21.48  707.33   20.34
  664.03   19.71  606.60   15.53  603.82   15.50  597.06   15.41  581.54   15.21
  599.44   15.44  617.53   19.35  619.35   19.38  636.34   19.65  665.45   20.09
  679.41   20.30  674.55   20.23  669.09   20.15  648.47   19.83  597.51   19.04
  606.01   19.17  566.58   18.54  556.26   18.37  496.82   17.36  504.70   17.50
  482.86   17.11  452.53   16.57  460.42   16.71  400.36   15.58  422.81   16.02
  393.08   15.44  385.81   15.30  405.22   15.68  385.20   15.29  390.05   15.38
  371.25   15.01  407.64   15.73  388.84   15.36  384.59   15.27  387.02   15.32
  370.03   14.98  396.12   15.50  377.92   15.14  423.42   16.03  396.72   15.51
  394.90   15.48  410.68   15.78  421.60   15.99  420.38   15.97  434.33   16.23
  460.42   16.71  478.62   17.04  487.72   17.20  554.44   18.34  574.46   18.67
  608.43   19.21  667.88   20.13  713.98   20.81  783.14   21.80  915.38   23.56
 1008.19   24.73 1107.29   21.10 1205.03   22.02 1260.53   22.52 1336.15   23.18
 1359.88   23.39 1357.08   28.74 1292.54   28.05 1235.31   27.42 1160.43   26.58
 1065.45   25.47  927.85   23.77  860.88   22.89  756.77   21.46  669.10   20.18
  600.91   19.13  593.61   19.01  502.28   17.49  511.42   17.65  459.06   16.72
  448.71   16.53  418.26   15.96  388.43   15.38  405.48   15.71  429.83   16.18
  382.34   15.26  377.47   15.16  400.00   15.61  407.31   15.75  390.26   15.41
  393.91   15.49  424.96   16.09  423.14   16.05  465.75   16.84  446.27   16.48
  493.15   17.33  513.24   17.68  530.90   17.98  583.87   18.85  582.65   18.83
  637.44   19.70  669.10   20.18  664.23   20.11  674.58   20.27  678.84   20.33
  708.07   20.76  683.71   20.40  719.63   20.93  688.58   20.48  652.05   19.92
  682.50   20.38  694.06   20.56  653.88   19.95  726.94   21.04  757.99   21.48
  783.59   17.62  887.83   18.76  946.10   19.36 1019.82   20.10 1121.49   25.55
 1124.98   25.59 1124.98   25.59 1163.39   26.02 1182.60   26.23 1162.81   26.01
 1140.11   25.76 1087.73   25.16 1068.53   24.94 1045.83   24.67  976.58   23.84
  861.34   22.39  839.81   22.11  761.82   21.06  664.05   19.66  628.55   19.13
  608.18   18.81  596.54   18.63  512.15   17.26  502.26   17.10  495.85   16.99
  458.02   16.33  456.86   16.31  405.65   15.36  420.78   15.65  417.87   15.59
  394.59   15.15  395.17   15.17  409.72   15.44  408.56   15.42  401.57   15.29
  353.27   14.34  413.79   15.52  405.06   15.35  368.98   14.65  394.01   15.14
  412.05   15.49  407.39   15.40  407.39   15.40  439.98   16.00  440.56   16.01
  446.97   16.13  456.28   16.30  431.25   15.84  502.84   17.11  495.85   16.99
  530.77   17.58  540.08   17.73  552.31   17.93  570.35   18.22  566.99   15.04
  612.84   15.63  606.86   15.56  597.29   15.43  600.88   15.48  567.58   18.43
  608.29   19.08  613.08   19.16  520.28   17.65  558.60   18.29  532.85   17.86
  523.27   17.70  584.94   18.71  576.56   18.58  644.21   19.64  642.42   19.61
  682.53   20.21  742.40   21.08  751.98   21.22  872.32   22.85  966.32   24.05
 1077.68   25.40 1236.94   27.21 1432.72   29.29 1655.44   31.48 1769.20   32.55
 2051.19   35.04 2315.22   37.23 2455.32   38.34 2504.42   38.72 2690.02   40.13
 2611.59   39.54 2581.05   39.31 2526.57   38.89 2402.63   37.93 2291.87   37.04
 2127.83   35.69 1960.78   34.26 1717.71   32.07 1501.57   29.98 1345.31   28.38
 1174.67   26.52 1048.94   25.06  927.41   23.56  746.00   21.13  711.27   20.64
  663.37   19.93  549.02   18.13  547.22   18.10  481.96   16.99  462.80   16.65
  429.88   16.04  413.11   15.73  443.05   16.29  428.42   13.27  425.55   13.22
  414.05   13.04  455.95   13.69  460.05   13.75  464.61   17.29  494.85   17.84
  489.06   17.74  511.58   18.14  535.39   18.56  505.79   18.04  581.72   19.35
  550.84   18.83  599.10   19.63  563.06   19.04  545.05   18.73  587.52   19.44
  539.90   18.64  583.66   19.38  528.96   18.45  491.63   17.79  501.29   17.96
  469.11   17.37  459.46   17.19  444.02   16.90  433.72   16.71  444.02   16.90
  416.34   16.37  406.69   16.18  400.90   16.06  407.98   16.20  408.62   16.22
  404.12   16.13  398.97   16.02  392.54   15.89  410.55   16.25  407.98   16.20
  382.24   15.68  404.76   16.14  388.67   15.81  431.79   16.67  413.77   16.32
  431.15   16.66  438.22   16.79  460.10   17.21  402.83   16.10  464.61   17.29
  458.17   17.17  470.40   17.40  509.65   18.11  527.67   18.43  556.63   18.93
  571.43   19.18  623.96   16.08  604.89   15.84  634.74   16.22  636.40   16.24
  654.23   16.47  658.37   16.52  672.52   20.36  665.13   20.25  648.48   19.99
  686.70   20.57  642.93   19.91  625.67   19.64  566.50   18.69  602.25   19.27
  600.40   19.24  580.06   18.91  579.44   18.90  583.14   18.96  578.83   18.89
  606.56   19.34  603.48   19.29  663.28   20.22  650.33   20.02  710.12   20.92
  759.44   21.64  813.68   22.40  873.48   23.20  956.70   24.28 1049.16   25.43
 1195.87   27.15 1296.96   28.28 1353.68   28.89 1471.41   30.12 1484.36   30.25
 1463.40   30.03 1552.78   30.94 1595.32   31.36 1556.48   30.98 1492.37   30.33
 1427.65   29.67 1383.88   29.21 1316.69   28.49 1206.35   27.27 1110.19   26.16
 1002.31   24.86  963.48   24.37  860.53   23.03  815.53   22.42  744.64   21.42
  692.86   20.67  664.51   20.24  620.13   19.55  600.40   19.24  581.29   18.93
  564.65   18.66  522.88   14.50  500.35   14.19  498.34   14.16  500.75   14.19
  490.30   14.04  505.81   17.14  516.84   17.32  556.91   17.98  563.88   18.10
  567.94   18.16  627.76   19.09  652.73   19.47  671.31   19.74  710.80   20.32
  809.52   21.68  800.23   21.56  851.92   22.24  836.82   22.04  866.43   22.43
  901.86   22.89  862.37   22.38  945.99   23.44  912.31   23.02  912.31   23.02
  896.05   22.81  937.86   23.34  795.01   21.49  806.04   21.64  774.10   21.20
  737.51   20.70  673.64   19.78  627.76   19.09  628.92   19.11  608.59   18.80
  566.20   18.13  527.29   17.50  490.13   16.87  433.80   15.87  458.77   16.32
  443.67   16.05  432.64   15.85  418.12   15.58  427.99   15.77  405.34   15.34
  389.66   15.04  428.57   15.78  396.63   15.18  389.08   15.03  394.89   15.14
  398.37   15.21  386.76   14.99  407.08   15.38  375.15   14.76  394.89   15.14
  410.91   12.59  402.43   12.45  418.23   12.70  402.04   12.45  417.57   15.51
  432.54   15.78  437.72   15.88  426.21   15.67  448.09   16.06  493.59   16.86
  492.44   16.84  521.24   17.33  533.33   17.53  548.88   17.78  570.19   18.12
  594.38   18.50  616.85   18.85  665.23   19.57  721.67   20.39  797.70   21.43
  804.03   21.52  939.38   23.26  911.74   22.92  971.63   23.66  994.10   23.93
 1047.66   24.56 1104.68   25.22 1120.81   25.41 1101.80   25.19 1059.18   24.70
 1083.95   24.99 1005.62   24.07  995.25   23.94  957.24   23.48  917.49   22.99
  855.29   22.19  805.76   21.54  793.09   21.37  738.95   20.63  661.20   19.51
  637.58   19.16  600.72   18.60  547.73   17.76  548.88   17.78  515.48   17.23
  509.14   17.12  539.67   17.63  513.17   17.19  521.24   17.33  521.24   17.33
  522.39   17.35  531.61   17.50  539.67   17.63  553.22   14.98  587.32   15.44
  603.55   15.65  665.65   16.44  685.54   16.68  730.19   17.22  778.25   22.06
  798.25   22.34  835.13   22.85  905.14   23.79  964.53   24.55  943.27   24.28
  986.40   24.83 1015.78   25.20  991.40   24.89 1047.04   25.58 1056.42   25.70
 1017.66   25.22 1002.66   25.04  988.28   24.86  973.28   24.67  997.03   24.96
  943.27   24.28  950.77   24.38  953.90   24.42  868.26   23.30  866.39   23.27
  857.01   23.15  815.75   22.58  866.39   23.27  859.51   23.18  843.26   22.96
  890.76   23.60  927.02   24.07  987.03   24.84 1013.28   25.17 1060.17   25.74
 1100.80   26.23 1177.06   27.13 1130.80   26.59 1155.18   26.87 1230.19   27.73
 1152.68   26.84 1205.19   27.45 1162.06   26.95 1157.68   26.90 1170.18   27.05
 1157.68   26.90 1113.92   26.39 1035.79   25.45  930.15   24.11  882.64   23.49
  852.01   23.08  824.50   22.70  768.25   21.91  695.11   20.84  698.86   20.90
  583.22   19.09  605.09   19.45  566.34   18.82  570.45   28.00  534.71   27.11
  464.60   25.27  453.61   24.97  430.24   24.32  406.87   23.65  442.61   24.67
  404.12   23.57  470.10   25.42  424.74   24.16  401.37   23.49  408.25   23.69
  401.37   23.49  423.37   24.12  439.86   24.59  421.99   24.08  420.62   24.05
  465.98   25.31  439.86   24.59  435.74   24.47  449.48   24.86  454.98   25.01
  464.60   25.27  571.82   28.04  520.96   26.76  482.47   25.75  534.71   27.11
  529.21   26.97  559.45   27.73  584.19   28.34  549.83   27.49  570.45   28.00
  606.19   28.87  563.57   27.83  570.45   28.00  478.35   25.64  522.34   26.80
  548.45   27.46  541.58   27.28  503.09   26.30  542.96   27.32  504.47   26.33
  512.71   26.55  467.35   25.35  511.34   26.51  530.58   27.01  475.60   25.57
  486.60   25.86  470.10   25.42  508.59   26.44  476.98   25.61  439.86   24.59
  476.98   25.61                                                                