                                                                                
BANK 1 2431 487 CONST  602.500    5.000 0 0 ESD                                 
  534.47   24.63  559.43   25.20  575.32   25.55  526.52   24.44  591.21   25.90
  556.03   25.12  577.59   25.60  533.33   24.60  516.31   24.21  514.04   24.15
  557.16   25.14  486.81   23.50  590.07   25.88  563.97   25.30  604.82   26.20
  525.39   24.42  575.32   25.55  559.43   25.20  561.70   25.25  550.35   24.99
  594.61   25.98  532.20   24.57  566.24   25.35  545.82   24.89  591.21   25.90
  622.98   26.59  577.59   25.60  582.13   25.70  582.13   25.70  579.86   25.65
  605.96   26.22  570.78   25.45  599.15   26.07  570.78   25.45  590.07   25.88
  600.28   26.10  574.18   25.53  577.59   25.60  580.99   25.68  592.34   25.93
  618.44   26.49  624.11   26.61  620.71   26.54  660.43   27.38  638.87   26.92
  637.73   26.90  640.00   26.95  653.62   27.23  575.32   25.55  645.67   27.07
  627.52   26.68  713.76   28.46  676.56   19.56  764.17   20.78  738.17   20.43
  770.95   20.87  805.99   21.34  814.47   21.46  909.42   22.67  924.12   22.85
  961.42   23.31  939.38   23.04  938.25   23.03  888.51   22.41  806.56   21.35
  719.51   20.17  688.43   19.73  649.99   19.17  607.04   18.52  596.86   18.37
  593.47   18.31  559.56   17.78  551.08   17.65  541.47   17.49  574.25   18.02
  572.56   17.99  564.08   17.86  518.86   17.13  539.21   17.46  531.30   17.33
  551.08   17.65  577.65   18.07  544.30   17.54  539.21   17.46  527.34   17.26
  545.43   17.56  503.04   16.86  503.04   16.86  516.60   17.09  521.12   17.16
  510.95   16.99  508.12   16.95  512.65   17.02  500.21   16.81  519.99   17.14
  517.17   17.10  522.26   17.18  478.73   16.45  501.34   16.83  480.99   16.49
  517.17   17.10  506.43   16.92  522.26   17.18  484.95   16.56  503.60   16.87
  488.30   13.49  478.99   13.36  478.99   13.36  498.00   13.62  520.36   13.93
  492.41   13.55  486.81   13.47  481.22   13.39  504.58   16.74  449.07   15.79
  455.18   15.90  479.60   16.32  492.37   16.53  469.61   16.15  455.73   15.91
  440.19   15.63  470.72   16.16  512.35   16.86  490.15   16.49  466.83   16.10
  476.27   16.26  480.71   16.34  486.82   16.44  519.01   16.97  461.84   16.01
  434.64   15.53  449.63   15.80  480.71   16.34  441.85   15.66  485.15   16.41
  466.83   16.10  460.73   15.99  461.28   16.00  466.28   16.09  485.15   16.41
  497.36   16.62  454.07   15.88  441.30   15.65  462.39   16.02  496.81   16.61
  462.95   16.03  434.08   15.52  449.07   15.79  445.18   15.72  468.50   16.13
  437.97   15.59  462.95   16.03  450.18   15.81  431.31   15.47  445.74   15.73
  452.96   15.86  457.95   15.94  439.08   15.61  432.42   15.49  449.07   15.79
  462.02   13.10  459.42   13.06  452.37   12.96  456.82   13.03  460.54   13.08
  421.72   15.29  463.29   16.02  433.92   15.51  417.84   15.22  453.87   15.86
  451.65   15.82  433.92   15.51  464.39   16.04  459.41   15.96  451.09   15.81
  441.12   15.64  420.62   15.27  453.31   15.85  436.69   15.56  458.30   15.94
  436.69   15.56  410.64   15.09  442.78   15.66  438.90   15.60  435.58   15.54
  432.25   15.48  455.53   15.89  443.34   15.67  441.67   15.64  441.12   15.64
  458.30   15.94  460.52   15.98  427.82   15.40  458.30   15.94  443.89   15.68
  404.54   14.97  430.59   15.45  438.35   15.59  436.69   15.56  443.34   15.67
  417.29   15.21  426.16   15.37  417.29   15.21  463.84   16.03  451.65   15.82
  413.97   15.15  414.52   15.16  437.24   15.57  414.52   15.16  439.46   15.61
  417.84   15.22  429.48   15.43  428.93   15.42  427.82   15.40  443.89   15.68
  418.45   12.44  422.51   12.50  453.93   12.95  420.26   15.32  426.96   15.44
  402.40   14.99  445.37   15.77  419.14   15.29  461.00   16.04  413.56   15.19
  433.65   15.56  433.10   15.55  424.72   15.40  427.51   15.45  444.82   15.76
  452.07   15.88  440.91   15.69  442.03   15.71  455.42   15.94  474.95   16.28
  467.14   16.15  494.49   16.61  496.72   16.65  469.37   16.19  477.19   16.32
  526.30   17.14  572.62   17.88  583.79   18.05  613.37   18.50  721.08   20.06
  730.01   20.18  845.54   21.72  952.14   23.05 1101.16   24.79 1377.98   27.73
 1665.97   30.49 1925.49   32.78 2137.57   34.54 2215.71   35.17 2136.46   34.53
 1922.14   32.75 1624.67   30.11 1245.71   26.37  889.07   22.28  639.60   18.89
  519.05   17.02  435.33   15.59  425.84   15.42  443.14   15.73  433.65   15.56
  451.51   15.87  444.82   15.76  450.96   15.86  436.44   15.61  426.57   12.83
  474.40   13.53  445.09   13.10  457.04   13.28  403.70   15.40  443.66   16.15
  440.14   16.08  474.22   16.69  482.44   16.84  468.93   16.60  478.92   16.78
  463.64   16.51  530.63   17.66  538.27   17.78  558.25   18.11  591.16   18.64
  581.17   18.48  651.09   19.56  734.54   20.78  838.55   22.20  990.16   24.12
 1146.47   25.96 1426.77   28.96 1745.85   32.03 2004.41   34.32 2198.91   35.95
 2220.66   36.12 2081.97   34.98 1775.82   32.30 1395.62   28.64 1081.24   25.21
  765.09   21.20  582.34   18.50  483.62   16.86  440.72   16.09  416.04   15.64
  430.15   15.90  443.66   16.15  449.54   16.25  458.35   16.41  431.91   15.93
  406.05   15.45  422.51   15.76  414.28   15.60  424.27   15.79  413.69   15.59
  428.97   15.88  428.38   15.87  416.63   15.65  435.43   16.00  397.83   15.29
  465.99   16.55  429.56   15.89  431.22   13.08  424.48   12.98  432.01   13.09
  414.56   12.82  428.84   13.04  418.53   12.89  439.51   16.47  400.00   15.71
  408.64   15.88  452.47   16.71  445.06   16.57  453.09   16.72  453.09   16.72
  466.05   16.96  415.43   16.01  446.30   16.60  430.25   16.30  456.17   16.78
  430.25   16.30  483.33   17.27  482.10   17.25  504.32   17.64  533.95   18.15
  643.83   19.94  712.35   20.97  782.10   21.97  786.42   22.03  879.01   23.29
  874.07   23.23  841.98   22.80  853.70   22.96  712.96   20.98  631.48   19.74
  553.70   18.49  488.89   17.37  436.42   16.41  424.69   16.19  443.83   16.55
  436.42   16.41  440.12   16.48  420.37   16.11  426.54   16.23  453.70   16.74
  428.40   16.26  433.95   16.37  451.23   16.69  450.00   16.67  407.41   15.86
  408.02   15.87  430.25   16.30  443.21   16.54  450.62   16.68  415.43   16.01
  441.36   16.51  418.47   13.31  432.87   13.54  439.22   13.64  443.88   13.71
  444.73   13.72  455.32   13.89  459.62   17.16  457.69   17.13  466.67   17.30
  485.90   17.65  505.13   17.99  480.13   17.54  517.31   18.21  501.92   17.94
  453.21   17.04  458.33   17.14  461.54   17.20  441.67   16.83  464.74   17.26
  445.51   16.90  419.87   16.41  421.79   16.44  444.23   16.87  448.08   16.95
  441.67   16.83  459.62   17.16  435.90   16.72  445.51   16.90  437.82   16.75
  422.44   16.46  394.87   15.91  442.31   16.84  433.33   16.67  456.41   17.10
  432.69   16.65  444.87   16.89  396.79   15.95  458.97   17.15  444.87   16.89
  419.23   16.39  441.67   16.83  429.49   16.59  412.82   16.27  405.13   16.12
  412.18   16.25  416.67   16.34  426.28   16.53  444.87   16.89  418.59   16.38
  419.23   16.39  417.31   16.36  421.15   16.43  416.67   16.34  403.21   16.08
  425.64   16.52  413.91   13.07  443.62   13.53  411.02   13.02  457.65   13.74
  441.33   16.59  428.86   16.35  444.44   16.64  417.02   16.12  399.56   15.78
  443.20   16.62  445.69   16.67  431.35   16.40  424.50   16.27  405.80   15.90
  412.65   16.04  434.47   16.46  443.82   16.63  448.18   16.71  448.18   16.71
  453.79   16.82  450.05   16.75  439.46   16.55  451.30   16.77  397.69   15.74
  412.65   16.04  446.31   16.68  379.62   15.38  417.02   16.12  445.69   16.67
  391.46   15.62  400.81   15.81  414.52   16.07  398.94   15.77  448.81   16.73
  405.80   15.90  440.08   16.56  412.03   16.03  416.39   16.11  426.37   16.30
  428.86   16.35  404.55   15.88  425.12   16.28  400.19   15.79  420.76   16.19
  398.32   15.76  388.97   15.57  430.73   16.39  418.26   16.15  428.86   16.35
  397.07   15.73  408.29   15.95  443.20   16.62  441.33   16.59  425.00   13.12
  417.30   13.00  412.03   12.92  404.34   12.80  411.63   12.91  419.74   15.59
  401.79   15.25  410.48   15.42  402.95   15.27  417.43   15.55  407.58   15.36
  407.58   15.36  418.58   15.57  434.22   15.86  421.48   15.62  380.95   14.85
  405.27   15.32  404.69   15.31  406.43   15.34  394.27   15.11  410.48   15.42
  420.32   15.60  393.69   15.10  385.58   14.94  379.22   14.82  418.58   15.57
  414.53   15.49  422.06   15.63  397.74   15.17  405.85   15.33  408.16   15.37
  387.90   14.99  407.58   15.36  389.06   15.01  433.06   15.83  389.06   15.01
  390.79   15.04  423.22   15.65  427.85   15.74  411.06   15.43  393.11   15.09
  411.64   15.44  452.16   16.18  399.48   15.21  405.85   15.33  412.79   15.46
  404.69   15.31  394.85   15.12  424.95   15.69  429.58   15.77  422.64   15.64
  402.37   15.26  416.27   15.52  409.90   15.40  408.16   15.37  410.89   12.66
  389.43   12.33  401.91   12.52  404.64   12.57  422.59   12.84  394.82   15.24
  403.06   15.40  428.95   15.89  393.65   15.22  411.89   15.57  409.53   15.52
  422.48   15.77  408.94   15.51  425.42   15.82  430.13   15.91  410.71   15.55
  397.76   15.30  388.94   15.13  396.00   15.26  401.88   15.38  411.30   15.56
  436.60   16.03  408.94   15.51  402.47   15.39  377.76   14.91  409.53   15.52
  402.47   15.39  413.06   15.59  407.18   15.48  423.07   15.78  456.02   16.38
  403.06   15.40  448.96   16.25  500.74   17.16  570.76   18.33  666.08   19.80
  782.58   21.46  953.81   23.69 1232.13   26.93 1360.40   28.29 1336.28   28.04
 1269.20   27.33 1174.46   26.29  977.93   23.99  767.87   21.26  573.70   18.37
  528.39   17.63  455.43   16.37  447.19   16.22  427.18   15.85  427.77   15.87
  429.54   15.90  407.77   15.49  421.91   12.80  418.80   12.76  425.80   12.86
  426.18   12.87  419.58   12.77  443.27   16.10  445.03   16.13  421.05   15.69
  423.39   15.74  409.94   15.48  442.69   16.09  473.68   16.64  459.06   16.38
  498.83   17.08  472.51   16.62  478.36   16.73  507.02   17.22  464.91   16.49
  447.95   16.19  446.20   16.15  431.58   15.89  391.23   15.13  426.90   15.80
  402.92   15.35  423.98   15.75  391.81   15.14  419.88   15.67  407.60   15.44
  407.60   15.44  406.43   15.42  405.85   15.41  388.89   15.08  418.71   15.65
  424.56   15.76  429.82   15.85  423.98   15.75  398.25   15.26  412.87   15.54
  378.36   14.87  461.99   16.44  429.82   15.85  456.73   16.34  449.71   16.22
  486.55   16.87  505.85   17.20  549.71   17.93  598.83   18.71  671.93   19.82
  747.37   20.91  781.29   21.38  871.93   22.58  980.70   23.95 1225.73   26.77
 1475.44   29.37 1844.62   26.85 2146.39   28.97 2305.87   30.02 2307.05   30.03
 2071.34   28.45 1674.19   25.58 1363.52   28.13  996.66   24.05  733.13   20.63
  527.64   17.50  469.02   16.50  432.45   15.84  450.44   16.17  417.94   15.58
  422.00   15.65  426.06   15.73  389.49   15.04  439.41   15.97  431.87   15.83
  442.90   16.03  401.10   15.26  406.33   15.36  417.36   15.56  446.96   16.11
  472.50   16.56  464.37   16.42  574.08   18.25  680.89   19.88  888.70   22.71
 1310.11   27.58 1893.48   33.15 3041.07   42.01 4798.14   52.77 7286.03   65.03
10215.64   77.0113263.10   87.7415301.70   94.2515729.50   95.5514440.28   91.55
11683.65   82.35 8256.57   69.23 5304.31   55.49 2912.78   41.12 1582.35   30.31
  905.53   22.93  627.49   19.08  530.55   17.55  496.88   16.98  506.17   17.14
  524.16   17.44  523.58   17.43  548.54   17.84  647.22   19.38  740.37   17.48
  935.69   19.66 1193.76   22.20 1525.34   25.10 1871.37   27.80 2074.95   29.27
 2019.71   36.13 2003.55   35.98 1644.85   32.60 1299.08   28.98  973.34   25.08
  692.20   21.15  522.22   18.37  455.65   17.16  447.25   17.00  429.79   16.67
  451.77   17.09  452.42   17.10  424.62   16.57  393.60   15.95  425.27   16.58
  403.94   16.16  412.34   16.32  406.53   16.21  393.60   15.95  443.37   16.93
  432.38   16.72  438.84   16.84  456.29   17.17  469.87   17.43  525.45   18.43
  503.47   18.04  544.84   18.77  530.62   18.52  579.74   19.36  564.87   19.11
  566.17   19.13  553.89   18.92  523.51   18.39  504.12   18.05  484.73   17.70
  447.25   17.00  440.78   16.88  427.21   16.62  433.67   16.74  403.30   16.14
  410.41   16.29  387.14   15.82  414.28   16.36  379.38   15.66  400.71   16.09
  403.94   16.16  428.50   16.64  385.20   15.78  392.31   15.92  395.98   12.88
  408.13   13.08  406.45   13.05  415.25   13.19  388.02   12.75  437.51   16.86
  388.10   15.88  407.61   16.28  371.20   15.53  403.06   16.19  408.26   16.29
  402.41   16.17  404.36   16.21  420.61   16.54  395.25   16.03  396.55   16.06
  440.76   16.93  386.80   15.86  405.66   16.24  380.30   15.72  405.01   16.23
  376.40   15.64  410.21   16.33  371.85   15.55  408.26   16.29  403.06   16.19
  397.20   16.07  379.00   15.70  397.85   16.08  410.21   16.33  390.70   15.94
  386.15   15.84  403.06   16.19  393.30   15.99  405.66   16.24  411.51   16.36
  383.55   15.79  380.95   15.74  405.66   16.24  418.01   16.48  407.61   16.28
  388.75   15.90  405.01   16.23  432.96   16.78  455.06   17.20  416.71   16.46
  412.16   16.37  419.31   16.51  375.75   15.63  392.00   15.96  396.55   16.06
  381.60   15.75  373.15   15.58  399.15   16.11  390.47   12.92  385.77   12.84
  392.61   12.95  377.66   12.70  398.36   15.58  409.32   15.79  373.99   15.09
  373.38   15.08  367.90   14.97  418.46   15.97  406.88   15.74  378.86   15.19
  381.91   15.25  374.60   15.11  399.57   15.60  369.12   14.99  391.66   15.45
  397.14   15.55  384.35   15.30  376.43   15.14  388.00   15.37  363.03   14.87
  366.07   14.93  378.25   15.18  369.12   14.99  406.27   15.73  391.66   15.45
  377.04   15.15  382.52   15.26  383.74   15.29  380.69   15.23  395.31   15.52
  375.21   15.12  385.56   15.32  395.31   15.52  384.35   15.30  380.08   15.22
  424.55   16.08  426.98   16.13  451.35   16.58  506.78   17.57  568.91   18.62
  661.49   20.07  731.54   21.11  852.14   22.78  830.21   22.49  807.07   22.17
  793.67   21.99  632.25   19.62  570.73   18.65  507.99   17.59  450.74   16.57
  403.23   15.67  386.78   15.35  392.84   12.54  383.24   12.38  374.84   12.25
  367.64   12.13  376.04   12.26  370.97   14.95  381.21   15.15  386.63   15.26
  424.57   15.99  421.56   15.93  440.23   16.28  480.58   17.01  615.48   19.25
  779.28   21.66 1025.59   24.85 1395.36   28.99 1748.27   32.45 2071.67   35.32
 2253.54   36.84 2252.94   36.83 1985.55   34.58 1619.39   31.23 1220.11   27.11
  890.09   23.15  650.41   19.79  495.03   17.27  414.33   15.80  398.68   15.49
  395.06   15.42  369.17   14.91  383.02   15.19  360.13   14.73  371.57   14.96
  377.60   15.08  362.54   14.78  362.54   14.78  375.79   15.04  364.35   14.81
  392.65   15.38  369.77   14.92  364.35   14.81  357.12   14.67  370.97   14.95
  390.85   15.34  378.20   15.09  381.81   15.16  363.75   14.80  346.28   14.44
  402.29   15.57  359.53   14.71  343.87   14.39  373.38   15.00  381.81   15.16
  364.95   14.83  378.43   12.46  375.56   12.41  386.22   12.58  369.82   12.31
  380.89   12.50  382.52   15.29  397.19   15.58  360.53   14.84  370.30   15.04
  343.42   14.49  375.19   15.14  367.25   14.98  378.86   15.22  388.02   15.40
  421.02   16.04  455.24   16.68  472.96   17.00  537.12   18.12  578.67   18.80
  675.83   20.32  761.38   21.57  938.59   23.95 1254.51   27.69 1740.91   32.62
 2433.24   38.56 3073.63   43.34 3660.86   47.30 3990.83   49.38 3828.29   48.37
 3312.56   44.99 2689.28   40.54 2009.17   35.04 1371.83   28.95  973.42   24.39
  667.28   20.19  513.29   17.71  434.46   16.29  420.41   16.03  389.86   15.43
  392.30   15.48  376.41   15.17  343.42   14.49  379.47   15.23  419.80   16.02
  372.75   15.09  389.86   15.43  356.25   14.75  369.08   15.02  350.14   14.63
  409.41   15.82  402.69   15.69  369.69   15.03  386.80   15.37  395.97   15.56
  393.15   12.70  346.77   11.93  361.96   12.19  381.25   12.51  378.37   12.46
  382.58   15.57  402.22   15.96  368.65   15.28  407.28   16.06  436.42   16.63
  484.56   17.52  549.17   18.65  692.32   20.94  875.38   23.55 1146.48   26.95
 1457.48   30.38 1750.12   33.29 1858.43   34.31 1850.83   34.24 1575.93   31.59
 1323.83   28.96 1006.49   25.25  787.97   22.34  609.34   19.65  482.66   17.48
  401.58   15.95  401.58   15.95  360.41   15.11  380.68   15.53  378.78   15.49
  350.28   14.90  383.21   15.58  400.95   15.94  385.11   15.62  388.92   15.70
  381.31   15.54  390.18   15.72  431.99   16.54  456.69   17.01  490.26   17.62
  548.54   18.64  541.57   18.52  589.07   19.32  527.00   18.27  488.99   17.60
  460.49   17.08  478.86   17.42  442.76   16.75  405.38   16.02  388.92   15.70
  374.98   15.41  348.38   14.85  362.95   15.16  378.78   15.49  364.78   12.56
  354.40   12.38  353.11   12.35  414.91   13.39  362.61   12.52  401.24   16.17
  393.42   16.01  367.37   15.47  401.89   16.18  371.93   15.56  394.72   16.03
  366.72   15.46  377.79   15.69  388.86   15.92  388.21   15.90  394.72   16.03
  368.02   15.48  364.11   15.40  351.08   15.12  378.44   15.70  386.26   15.86
  362.16   15.36  388.86   15.92  376.49   15.66  377.79   15.69  399.28   16.13
  402.54   16.19  358.90   15.29  386.91   15.88  374.53   15.62  388.21   15.90
  360.85   15.33  379.09   15.71  383.00   15.79  380.39   15.74  392.77   15.99
  396.03   16.06  379.74   15.73  433.15   16.80  431.20   16.76  463.12   17.37
  506.76   18.17  571.89   19.30  618.79   20.08  618.79   20.08  644.19   20.48
  573.85   19.33  553.00   18.98  545.84   18.86  500.90   18.06  433.81   16.81
  442.92   16.99  425.34   16.64  379.74   15.73  398.51   13.04  363.09   12.45
  375.89   12.66  370.77   12.58  392.53   12.94  371.88   15.52  373.83   15.56
  394.56   15.99  390.02   15.90  350.50   15.07  356.98   15.21  386.78   15.83
  402.33   16.15  383.54   15.76  373.83   15.56  386.14   15.82  383.54   15.76
  371.88   15.52  374.47   15.58  379.01   15.67  369.94   15.48  390.02   15.90
  343.38   14.92  396.50   16.03  377.71   15.64  384.84   15.79  397.15   16.04
  447.68   17.03  485.91   17.74  563.65   19.11  580.50   19.39  676.38   20.93
  768.38   22.31  803.37   22.81  791.71   22.65  814.38   22.97  712.67   21.49
  608.36   19.85  544.87   18.79  561.06   19.07  539.68   18.70  498.22   17.97
  491.09   17.84  485.26   17.73  447.04   17.02  417.23   16.44  419.18   16.48
  401.68   16.13  464.53   17.35  423.06   16.56  480.73   17.65  504.70   18.08
  539.03   18.69  677.68   20.95  804.17   18.30  902.08   19.39  965.83   20.06
 1008.75   20.50 1092.92   21.34 1231.23   27.19 1430.03   29.31 1816.82   33.03
 2289.49   37.08 2915.32   41.84 3454.65   45.55 3884.68   48.30 3886.49   48.31
 3624.62   46.66 3126.73   43.33 2408.41   38.03 1794.59   32.83 1340.54   28.37
  917.12   23.47  696.70   20.46  515.92   17.60  456.46   16.56  387.39   15.25
  401.20   15.52  369.97   14.91  369.37   14.89  372.37   14.95  404.20   15.58
  379.58   15.10  385.59   15.22  381.98   15.15  374.17   14.99  353.15   14.56
  360.36   14.71  369.97   14.91  375.38   15.02  361.56   14.74  354.95   14.60
  384.38   15.19  378.98   15.09  375.38   15.02  372.97   14.97  366.97   14.85
  424.62   15.97  432.43   16.12  492.49   17.20  557.36   18.30  599.40   18.97
  701.50   20.53  742.34   21.12  765.17   21.44  776.58   21.60  728.53   20.92
  635.07   16.04  582.42   15.36  512.35   14.41  460.51   13.66  444.71   13.42
  406.64   12.83  411.92   15.75  359.53   14.71  354.71   14.62  364.35   14.81
  363.75   14.80  338.45   14.28  381.21   15.15  357.72   14.68  381.81   15.16
  361.34   14.75  384.22   15.21  379.40   15.12  359.53   14.71  420.36   15.91
  449.26   16.45  470.34   16.83  549.23   18.19  673.29   20.14  840.71   22.50
 1000.90   24.55 1315.87   28.15 1478.47   29.84 1526.05   30.32 1589.28   30.94
 1503.16   30.09 1300.81   27.99 1031.62   24.93  858.78   22.74  699.19   20.52
  605.24   19.09  505.87   17.45  441.43   16.30  444.44   16.36  393.26   15.39
  383.62   15.20  395.06   15.42  358.33   14.69  371.57   14.96  358.33   14.69
  362.54   14.78  378.80   15.10  366.15   14.85  371.57   14.96  336.04   14.23
  358.93   14.70  375.79   15.04  341.46   14.34  390.85   15.34  362.12   12.14
  348.69   11.91  359.27   12.09  361.71   12.13  348.29   11.90  375.95   12.37
  387.20   15.55  403.43   15.87  376.58   15.34  439.66   16.57  410.93   16.02
  442.15   16.62  444.65   16.66  406.56   15.93  438.41   16.55  373.46   15.27
  367.84   15.16  378.45   15.37  349.73   14.78  380.95   15.42  362.22   15.04
  354.10   14.87  384.07   15.49  379.70   15.40  355.97   14.91  356.60   14.92
  367.84   15.16  367.21   15.14  357.22   14.94  345.36   14.69  365.96   15.12
  386.57   15.54  354.72   14.88  370.34   15.21  394.07   15.69  374.08   15.28
  359.09   14.98  354.10   14.87  358.47   14.96  352.85   14.84  356.60   14.92
  344.73   14.67  372.83   15.26  410.93   16.02  401.56   15.84  344.73   14.67
  413.43   16.07  398.44   15.77  398.44   15.77  420.92   16.21  493.36   17.55
  496.49   17.61  566.43   18.81  592.66   19.24  726.00   17.57  816.59   18.64
  948.43   20.08 1206.59   22.65 1547.69   25.66 1986.10   35.83 2576.83   40.81
 3065.44   44.51 3536.60   47.81 3696.24   48.88 3661.98   48.65 3399.58   46.87
 2909.03   43.36 2342.22   38.91 1809.02   34.19 1323.64   29.25  950.07   24.78
  753.60   22.07  630.80   20.19  468.57   17.40  453.06   17.11  383.26   15.74
  388.43   15.84  369.04   15.44  334.79   14.71  385.20   15.78  359.35   15.24
  365.81   15.38  377.44   15.62  375.50   15.58  380.03   15.67  369.69   15.46
  352.24   15.09  359.35   15.24  357.41   15.20  373.57   15.54  387.14   15.82
  339.31   14.81  360.64   15.27  344.48   14.92  346.42   14.96  365.81   15.38
  368.40   15.43  340.60   14.84  342.54   14.88  361.93   15.29  361.93   15.29
  339.31   14.81  344.48   14.92  340.60   14.84  353.53   15.12  350.30   15.05
  345.13   14.94  387.78   15.83  371.47   12.91  373.26   12.94  401.97   13.43
  395.69   13.32  417.68   13.69  391.83   16.54  444.91   17.63  488.21   18.47
  588.09   20.27  632.09   21.01  766.20   23.13 1005.06   26.49 1321.46   30.38
 1531.69   32.71 1854.37   35.99 2006.64   37.44 2088.35   38.19 1960.54   37.00
 1769.16   35.15 1531.69   32.71 1265.58   29.73 1066.53   27.29  877.25   24.75
  806.01   23.73  678.89   21.78  585.30   20.22  558.76   19.76  489.61   18.49
  445.61   17.64  453.29   17.79  458.18   17.89  414.18   17.01  399.51   16.70
  397.42   16.66  352.72   15.70  358.30   15.82  375.07   16.19  345.03   15.52
  356.21   15.77  351.32   15.66  361.80   15.90  370.87   16.09  375.07   16.19
  329.67   15.17  379.26   16.28  354.81   15.74  382.75   16.35  363.19   15.93
  385.54   16.41  362.49   15.91  363.89   15.94  395.32   16.62  373.67   16.16
  410.69   16.94  403.00   16.78  433.16   13.80  478.01   14.50  519.35   15.11
  574.32   15.89  620.08   20.17  757.87   22.30  895.01   24.23 1233.60   28.45
 1507.87   31.46 1831.36   34.67 2209.97   38.08 2487.53   40.40 2639.76   41.62
 2634.51   41.58 2353.02   39.29 2041.99   36.60 1694.23   33.34 1361.55   29.89
 1106.30   26.94  864.17   23.81  712.60   21.62  641.08   20.51  562.99   19.22
  528.22   18.62  558.40   19.14  614.83   20.09  706.04   21.52  885.17   24.10
 1131.89   27.25 1466.54   31.02 1895.67   35.27 2478.35   40.33 2962.60   44.09
 3535.43   48.16 3804.46   49.96 3868.77   50.38 3607.61   48.65 3272.97   46.34
 2786.09   42.76 2288.06   38.75 1822.18   34.58 1465.22   31.01 1345.80   29.72
 1127.95   27.21 1061.02   26.39 1060.37   26.38 1081.36   26.64 1059.06   26.36
 1025.59   25.94  980.31   25.36  952.10   24.99  866.80   23.85  754.59   22.25
  666.67   16.93  565.66   15.59  506.34   14.75  477.54   14.33  442.73   13.79
  438.36   16.33  421.95   16.02  389.72   15.39  414.04   15.87  417.69   15.94
  435.32   16.27  467.55   16.86  506.46   17.55  573.95   18.68  674.87   20.26
  763.03   21.54  786.75   21.87  808.63   22.17  788.57   21.90  804.38   22.11
  772.76   21.68  674.27   20.25  579.42   18.77  562.40   18.49  517.40   17.74
  447.48   16.49  417.08   15.92  395.20   15.50  383.04   15.26  352.03   14.63
  373.31   15.07  385.47   15.31  366.62   14.93  344.73   14.48  324.06   14.04
  357.50   14.74  361.76   14.83  331.97   14.21  341.69   14.41  375.74   15.11
  357.50   14.74  347.17   14.53  372.09   15.04  349.60   14.58  344.73   14.48
  372.70   15.05  348.38   14.55  354.46   14.68  346.56   14.52  347.77   14.54
  379.39   15.19  347.17   14.53  348.99   14.57  340.48   14.39  367.02   12.19
  358.93   12.05  371.88   12.27  366.62   12.18  370.66   12.25  361.76   12.10
  345.61   14.57  373.85   15.15  343.16   14.51  370.17   15.07  412.52   15.91
  367.10   15.01  376.30   15.20  334.56   14.33  320.44   14.03  352.36   14.71
  354.82   14.76  354.21   14.75  365.25   14.97  392.27   15.52  351.75   14.69
  399.02   15.65  405.16   15.77  432.78   16.30  466.54   16.92  518.72   17.84
  563.54   18.60  653.16   20.02  739.10   21.30  838.55   22.69  885.82   23.32
  950.28   24.15  949.66   24.14  935.54   23.96  907.31   23.60  782.07   21.91
  689.38   20.57  594.23   19.10  546.35   18.31  526.70   17.98  484.35   17.24
  446.29   16.55  390.42   15.48  426.03   16.17  462.25   16.85  464.09   16.88
  483.12   17.22  519.34   17.86  531.61   18.06  553.10   18.43  556.78   18.49
  473.91   17.06  473.30   17.05  450.58   16.63  426.64   16.18  415.86   12.94
  379.23   12.36  393.72   12.59  376.41   12.31  369.91   14.83  351.47   14.46
  363.96   14.71  343.15   14.29  375.85   14.95  363.37   14.70  315.19   13.69
  376.45   14.96  346.12   14.35  371.10   14.86  366.93   14.77  337.79   14.17
  326.49   13.93  337.79   14.17  333.63   14.09  354.45   14.52  328.28   13.97
  351.47   14.46  344.93   14.32  343.74   14.30  321.74   13.83  363.96   14.71
  350.28   14.43  346.12   14.35  332.44   14.06  355.63   14.54  359.80   14.63
  344.93   14.32  340.77   14.24  339.58   14.21  340.17   14.22  327.09   13.95
  347.90   14.38  317.57   13.74  360.39   14.64  350.88   14.45  331.85   14.05
  346.12   14.35  324.12   13.88  330.66   14.02  359.80   14.63  360.99   14.65
  333.63   14.09  320.55   13.81  381.80   15.07  368.72   14.81  387.75   15.19
  444.84   16.26  443.06   16.23  488.85   17.05  523.50   14.58  590.52   15.49
  654.28   16.30  704.23   16.91  755.62   21.49  808.80   22.24  966.53   24.31
 1124.87   26.22 1258.14   27.73 1372.46   28.97 1392.02   29.17 1392.02   29.17
 1352.90   28.76 1288.09   28.06 1155.43   26.58  992.21   24.63  855.88   22.87
  750.73   21.42  633.35   19.68  545.32   18.26  497.63   17.44  438.94   16.38
  393.09   15.50  371.69   15.07  383.92   15.32  339.91   14.42  363.14   14.90
  353.35   14.70  373.53   15.11  376.59   15.17  385.14   15.34  353.35   14.70
  349.08   14.61  363.75   14.91  360.69   14.85  373.53   15.11  384.53   15.33
  401.04   15.66  388.20   15.41  415.71   15.94  435.89   16.32  487.24   17.26
  498.24   17.45  525.14   17.92  542.87   18.22  519.03   17.81  556.93   18.45
  491.52   17.33  519.64   17.82  476.23   17.06  446.89   16.53  437.11   16.35
  432.22   16.26  418.77   13.03  387.15   12.53  371.34   12.27  365.66   12.18
  349.45   11.90  404.58   12.81  387.16   15.50  416.32   16.07  429.35   16.32
  439.89   16.52  514.97   17.87  534.82   18.22  588.80   19.11  634.09   19.83
  640.92   19.94  666.36   20.33  633.47   19.83  609.90   19.45  581.36   18.99
  567.09   18.76  507.52   17.75  487.67   17.39  444.86   16.61  412.60   16.00
  400.81   15.77  395.22   15.66  341.24   14.55  335.04   14.42  318.29   14.05
  375.37   15.26  344.35   14.62  369.16   15.13  355.51   14.85  325.11   14.20
  346.21   14.66  341.24   14.55  356.13   14.86  333.18   14.38  351.79   14.77
  343.73   14.60  364.82   15.04  343.73   14.60  344.35   14.62  361.10   14.97
  371.03   15.17  354.89   14.84  371.03   15.17  387.16   15.50  362.96   15.01
  386.54   15.49  469.06   17.06  474.02   17.15  486.43   17.37  541.03   18.32
  562.76   15.19  605.39   15.75  643.51   16.24  680.81   16.70  750.49   17.54
  795.57   18.06  808.92   22.08  889.09   23.15  905.36   23.36  902.35   23.32
  863.17   22.81  816.15   22.18  784.81   21.75  716.70   20.78  689.57   20.39
  629.90   19.49  566.61   18.48  517.78   17.67  503.92   17.43  515.37   17.63
  475.59   16.93  525.62   17.80  580.47   18.71  572.03   18.57  644.36   19.71
  715.49   20.77  819.17   22.22  823.39   22.28  847.50   22.60  809.52   22.09
  820.98   22.25  792.65   21.86  773.96   21.60  705.24   20.62  646.17   19.74
  587.70   18.82  528.63   17.85  518.38   17.68  485.83   17.11  437.61   16.24
  421.94   15.95  405.67   15.64  429.17   16.08  434.60   16.19  444.24   16.36
  454.49   16.55  411.09   15.74  424.35   15.99  418.32   15.88  450.87   16.49
  448.46   16.44  446.05   16.40  472.57   16.88  466.63   13.60  555.75   14.84
  539.12   14.61  581.50   15.18  706.67   16.73  782.73   17.61  920.58   23.32
 1060.53   25.02 1240.63   27.07 1446.71   29.23 1581.34   30.56 1744.32   32.09
 1784.47   32.46 1919.69   33.67 1853.56   33.08 1806.32   32.66 1650.43   31.22
 1473.87   29.50 1315.03   27.87 1197.52   26.59  978.45   24.04  814.29   21.93
  717.45   20.58  614.70   19.05  519.63   17.52  497.79   17.14  449.96   16.30
  407.44   15.51  385.59   15.09  360.20   14.58  353.71   14.45  361.97   14.62
  322.41   13.80  359.02   14.56  352.52   14.43  312.37   13.58  346.03   14.29
  338.35   14.13  342.49   14.22  342.49   14.22  335.99   14.09  337.76   14.12
  354.30   14.46  356.66   14.51  324.77   13.85  329.50   13.95  324.18   13.84
  317.69   13.70  328.90   13.94  315.32   13.65  347.80   14.33  328.90   13.94
  313.55   13.61  322.41   13.80  333.04   14.02  344.07   11.65  340.53   11.58
  333.43   11.46  352.35   11.78  339.34   11.56  348.69   14.28  336.40   14.03
  312.42   13.52  355.71   14.43  360.98   14.53  345.18   14.21  349.86   14.31
  334.65   13.99  327.04   13.83  332.89   13.96  349.28   14.29  328.80   13.87
  339.92   14.10  322.95   13.75  346.94   14.25  339.92   14.10  352.79   14.37
  372.68   14.77  324.70   13.78  373.26   14.78  359.81   14.51  374.43   14.80
  366.83   14.65  382.04   14.95  421.82   15.71  425.33   15.77  462.78   16.45
  480.33   16.76  542.34   17.81  607.28   18.85  696.80   20.19  819.66   21.90
  910.34   23.08  971.19   23.84 1159.57   26.05 1285.94   27.43 1393.59   28.55
 1591.93   30.52 1657.45   31.14 1779.14   32.26 1682.02   31.37 1653.94   31.11
 1648.09   31.05 1539.86   30.01 1376.63   28.38 1294.72   27.52 1103.99   25.41
 1002.19   24.21  858.00   18.47  771.68   17.52  683.37   16.49  625.70   15.78
  582.74   15.22  570.22   18.60  553.23   18.32  568.40   18.57  561.12   18.45
  588.41   18.89  624.20   19.46  632.09   19.58  667.27   20.12  658.78   19.99
  687.90   20.43  638.16   19.68  660.60   20.02  619.96   19.39  570.22   18.60
  545.95   18.20  514.41   17.66  474.98   16.97  467.70   16.84  411.28   15.80
  422.81   16.02  399.15   15.56  355.47   14.68  376.10   15.10  350.02   14.57
  337.28   14.30  356.08   14.70  327.57   14.10  360.93   14.80  356.69   14.71
  369.43   14.97  350.02   14.57  330.60   14.16  341.52   14.39  343.95   14.44
  348.80   14.55  360.33   14.78  361.54   14.81  363.97   14.86  348.80   14.55
  379.13   15.17  378.53   15.15  412.50   15.82  402.79   15.63  403.40   15.64
  439.19   16.32  459.81   16.70  483.47   17.13  482.26   17.10  562.94   18.48
  618.14   19.36  713.52   16.94  819.31   18.15  922.67   19.26 1032.48   20.38
 1163.60   21.63 1282.19   27.94 1391.78   29.11 1380.82   28.99 1442.92   29.64
 1421.00   29.41 1364.38   28.82 1276.10   27.87 1262.10   27.72 1171.99   26.71
  985.08   24.49  896.80   23.37  826.79   22.44  719.03   20.92  638.05   19.71
  582.65   18.83  505.33   17.54  463.93   16.81  444.44   16.45  409.13   15.78
  401.83   15.64  364.08   14.89  382.34   15.26  351.29   14.62  371.39   15.04
  348.86   14.57  383.56   15.28  350.68   14.61  362.25   14.85  381.74   15.25
  371.99   15.05  378.69   15.18  437.75   16.33  406.70   15.74  417.05   15.93
  499.85   17.44  522.37   17.83  519.94   17.79  560.73   18.48  598.48   19.09
  655.10   19.97  670.93   20.21  651.45   19.92  686.76   20.45  664.84   20.12
  678.84   20.33  689.80   20.49  659.97   20.05  591.78   18.98  607.00   19.22
  691.64   16.56  679.75   16.41  692.43   16.57  717.40   16.86  814.20   21.77
  836.90   22.07  934.67   23.32 1022.55   24.39 1075.51   25.02 1148.26   25.85
 1207.62   26.51 1242.54   26.89 1301.91   27.53 1260.58   27.09 1301.32   27.52
 1165.14   26.04 1178.52   26.19 1161.07   25.99 1058.05   24.81  942.24   23.42
  915.47   23.08  803.72   21.63  725.74   20.55  651.83   19.48  629.71   19.14
  563.95   18.12  506.33   17.17  483.05   16.77  465.01   16.45  420.19   15.64
  390.51   15.08  401.57   15.29  381.78   14.91  374.80   14.77  372.47   14.72
  372.47   14.72  334.06   13.94  347.45   14.22  349.19   14.26  340.46   14.08
  383.53   14.94  350.36   14.28  332.90   13.92  352.10   14.31  363.74   14.55
  384.11   14.95  387.02   15.01  378.87   14.85  413.79   15.52  395.75   15.18
  414.96   15.54  426.01   15.75  493.53   16.95  495.85   16.99  518.74   14.38
  535.89   14.62  545.85   14.75  582.54   15.24  613.64   15.64  565.18   18.40
  617.27   19.22  571.77   18.50  562.19   18.35  532.26   17.85  533.45   17.87
  513.10   17.53  508.31   17.45  520.28   17.65  492.14   17.17  514.89   17.56
  534.65   17.89  566.98   18.42  609.49   19.10  625.06   19.35  662.78   19.92
  711.87   20.64  811.85   22.05  878.31   22.93 1013.02   24.63 1153.72   26.28
 1283.04   27.72 1509.95   30.07 1723.10   32.12 1972.76   34.37 2208.65   36.36
 2396.05   37.88 2659.48   39.90 2715.76   40.32 2831.31   41.17 2944.47   41.99
 2903.16   41.69 2834.90   41.20 2756.47   40.62 2593.02   39.40 2421.79   38.08
 2199.67   36.29 1875.77   33.51 1685.38   31.77 1511.15   30.08 1215.99   26.98
 1093.25   25.58  955.55   23.92  835.20   22.36  768.15   21.45  646.01   19.67
  601.11   18.97  550.22   18.15  490.35   17.13  448.55   13.57  418.57   13.11
  393.10   12.71  394.33   12.73  394.33   12.73  400.90   16.06  385.46   15.75
  395.75   15.96  416.34   16.37  422.14   16.48  453.02   17.07  455.60   17.12
  509.01   18.10  504.50   18.02  530.89   18.48  535.39   18.56  557.92   18.95
  568.21   19.12  508.37   18.09  588.80   19.47  578.51   19.29  561.78   19.01
  526.38   18.40  528.31   18.44  533.46   18.53  489.06   17.74  512.23   18.16
  467.18   17.34  467.82   17.35  427.28   16.58  407.34   16.19  413.77   16.32
  425.35   16.54  377.09   15.58  351.99   15.05  382.88   15.70  357.14   15.16
  371.30   15.46  376.45   15.56  316.60   14.27  339.12   14.77  378.38   15.60
  344.27   14.88  368.73   15.40  344.27   14.88  424.71   16.53  400.90   16.06
  380.95   15.66  386.10   15.76  396.40   15.97  409.91   16.24  387.39   15.79
  413.77   16.32  433.25   13.40  461.44   13.83  476.37   14.05  512.44   14.58
  553.90   15.15  592.87   15.68  596.09   19.17  615.19   19.47  612.11   19.42
  666.36   20.27  658.96   20.15  642.93   19.91  670.67   20.33  683.00   20.52
  655.88   20.11  670.06   20.32  602.25   19.27  605.33   19.32  551.09   18.43
  574.51   18.82  576.36   18.85  534.44   18.15  554.17   18.48  552.32   18.45
  570.81   18.76  599.17   19.22  611.50   19.42  630.61   19.72  694.71   20.69
  761.90   21.67  804.44   22.27  898.75   23.54  955.46   24.27 1103.41   26.08
 1143.47   26.55 1351.83   28.87 1384.50   29.21 1512.10   30.53 1535.52   30.77
 1572.51   31.13 1630.45   31.70 1651.41   31.91 1745.72   32.80 1668.67   32.07
 1668.67   32.07 1587.30   31.28 1460.93   30.01 1385.11   29.22 1297.58   28.28
 1177.99   26.95 1119.43   26.27 1010.94   24.96  920.94   23.83  818.00   22.46
  782.25   21.96  731.22   17.15  712.72   16.93  620.21   15.79  596.48   15.49
  583.61   15.32  551.68   17.90  496.52   16.98  494.19   16.94  529.62   17.54
  504.07   17.11  468.64   16.50  500.00   17.04  502.32   17.08  543.55   17.77
  550.52   17.88  581.30   18.37  634.15   19.19  663.18   19.62  708.48   20.28
  716.61   20.40  818.82   21.81  860.05   22.35  869.92   22.48  953.54   23.53
  986.64   23.94  941.35   23.38 1029.04   24.45 1000.00   24.10  996.52   24.06
  947.15   23.45  961.67   23.63  900.12   22.86  905.92   22.94  876.31   22.56
  819.98   21.82  713.12   20.35  671.31   19.74  662.60   19.62  595.82   18.60
  566.20   18.13  541.23   17.73  470.38   16.53  466.90   16.47  462.25   16.38
  461.09   16.36  420.44   15.63  380.95   14.87  409.41   15.42  393.15   15.11
  387.34   15.00  352.50   14.31  350.17   14.26  345.53   14.17  353.66   14.33
  355.02   11.70  347.31   11.57  350.39   11.62  348.08   11.58  357.67   14.35
  347.88   14.15  373.22   14.66  356.52   14.33  378.98   14.77  393.95   15.06
  413.53   15.43  414.11   15.44  393.95   15.06  405.47   15.28  434.27   15.82
  468.83   16.43  440.60   15.93  474.59   16.53  497.62   16.93  552.34   17.84
  582.29   18.31  624.91   18.97  647.37   19.31  721.09   20.38  742.40   20.68
  823.61   21.78  948.60   23.37  949.17   23.38 1011.95   24.14 1105.26   25.23
 1106.41   25.24 1117.35   25.37 1131.75   25.53 1157.67   25.82 1090.86   25.07
 1111.02   25.30 1097.77   25.14 1116.77   25.36  992.94   23.91  967.60   23.61
  874.30   22.44  823.04   21.77  804.61   21.53  776.96   21.15  688.84   19.92
  658.32   19.47  601.30   18.61  604.75   18.66  552.34   17.84  533.91   17.54
  555.22   17.88  495.90   16.90  494.74   16.88  512.63   14.42  480.57   13.97
  497.62   14.21  468.80   13.79  536.58   14.76  514.66   14.45  572.59   18.92
  562.59   18.75  606.34   19.47  660.10   20.31  682.61   20.66  736.37   21.45
  785.12   22.15  867.01   23.28  922.64   24.02  918.27   23.96 1022.03   25.28
 1007.03   25.09 1022.03   25.28 1137.68   26.67 1120.80   26.47 1061.42   25.76
 1082.04   26.01 1170.18   27.05 1070.17   25.86 1059.54   25.74 1042.66   25.53
 1055.79   25.69  988.28   24.86  972.03   24.65  905.77   23.79  825.13   22.71
  880.14   23.46  880.14   23.46  839.51   22.91  818.25   22.62  863.26   23.23
  848.26   23.03  866.39   23.27  925.14   24.05  978.28   24.73  971.40   24.64
 1078.92   25.97 1050.79   25.63 1123.93   26.51 1118.30   26.44 1195.81   27.34
 1278.95   28.27 1246.44   27.91 1232.69   27.76 1270.82   28.18 1290.20   28.40
 1234.57   27.78 1265.82   28.13 1192.69   27.30 1165.18   26.99 1090.17   26.10
 1039.54   25.49 1003.91   25.05  946.40   24.32  811.00   33.39  775.26   32.64
  709.28   31.22  677.66   30.52  625.43   29.32  577.32   28.17  600.69   28.73
  560.82   27.76  459.11   25.12  474.23   25.53  467.35   25.35  380.76   22.88
  446.74   24.78  412.37   23.81  406.87   23.65  394.50   23.29  349.14   21.91
  342.27   21.69  361.51   22.29  358.76   22.21  430.24   24.32  373.88   22.67
  389.00   23.12  409.62   23.73  401.37   23.49  431.62   24.36  421.99   24.08
  438.49   24.55  419.24   24.01  468.73   25.38  505.84   26.37  507.22   26.40
  496.22   26.12  533.33   27.08  479.73   25.68  476.98   25.61  553.95   27.59
  558.08   27.70  558.08   27.70  534.71   27.11  588.32   28.44  542.96   27.32
  559.45   27.73  573.20   28.07  496.22   26.12  553.95   27.59  537.46   27.18
  509.97   26.48  500.34   26.23  454.98   25.01  492.10   26.01  487.97   25.90
  442.61   24.67                                                                