                                                                                
BANK 1 2431 487 CONST  602.500    5.000 0 0 ESD                                 
  532.20   24.57  575.32   25.55  542.41   24.81  590.07   25.88  548.09   24.94
  569.65   25.42  542.41   24.81  592.34   25.93  586.67   25.80  569.65   25.42
  543.55   24.84  558.30   25.17  536.74   24.68  569.65   25.42  557.16   25.14
  596.88   26.03  561.70   25.25  533.33   24.60  611.63   26.34  563.97   25.30
  575.32   25.55  517.45   24.23  577.59   25.60  571.91   25.48  580.99   25.68
  549.22   24.96  601.42   26.12  553.76   25.07  590.07   25.88  523.12   24.36
  539.01   24.73  607.09   26.25  578.72   25.63  550.35   24.99  578.72   25.63
  565.11   25.32  594.61   25.98  510.64   24.07  607.09   26.25  595.74   26.00
  531.06   24.55  643.40   27.02  561.70   25.25  641.13   26.97  575.32   25.55
  601.42   26.12  578.72   25.63  579.86   25.65  536.74   24.68  583.26   25.73
  585.53   25.78  591.21   25.90  584.43   18.17  591.78   18.29  590.08   18.26
  564.65   17.86  581.60   18.13  584.43   18.17  599.69   18.41  603.65   18.47
  603.08   18.46  587.82   18.23  546.56   17.58  558.99   17.77  579.91   18.10
  586.69   18.21  585.56   18.19  614.38   18.63  562.95   17.84  595.17   18.34
  573.12   18.00  552.78   17.68  547.12   17.59  592.34   18.30  544.86   17.55
  554.47   17.70  575.95   18.04  560.69   17.80  513.78   17.04  540.91   17.49
  561.82   17.82  527.91   17.27  538.65   17.45  556.73   17.74  555.60   17.72
  513.78   17.04  554.47   17.70  521.69   17.17  502.47   16.85  503.04   16.86
  558.99   17.77  519.43   17.13  519.99   17.14  534.12   17.38  516.04   17.08
  484.39   16.55  511.52   17.00  523.95   17.21  512.65   17.02  543.73   17.53
  492.30   16.68  508.12   16.95  492.30   16.68  508.69   16.96  484.95   16.56
  536.02   14.14  522.23   13.95  481.97   13.40  514.77   13.85  504.71   13.72
  485.70   13.46  499.86   13.65  496.51   13.60  486.26   16.43  513.46   16.88
  486.82   16.44  525.12   17.07  476.82   16.27  514.57   16.90  504.02   16.73
  490.70   16.50  519.57   16.98  450.18   15.81  490.15   16.49  492.92   16.54
  486.26   16.43  497.92   16.63  485.15   16.41  490.15   16.49  448.52   15.78
  466.28   16.09  472.94   16.20  475.71   16.25  486.26   16.43  472.38   16.19
  491.81   16.52  475.16   16.24  501.25   16.68  479.60   16.32  477.38   16.28
  465.72   16.08  461.28   16.00  474.05   16.22  451.29   15.83  469.61   16.15
  477.38   16.28  474.05   16.22  482.38   16.36  451.29   15.83  469.05   16.14
  481.27   16.34  457.95   15.94  484.60   16.40  479.60   16.32  453.51   15.87
  473.49   16.21  470.72   16.16  484.04   16.39  434.64   15.53  465.72   16.08
  456.45   13.02  462.02   13.10  452.37   12.96  462.02   13.10  457.94   13.04
  487.12   16.43  456.64   15.91  450.54   15.80  478.25   16.28  449.43   15.78
  465.50   16.06  442.78   15.66  466.06   16.07  431.14   15.46  473.26   16.19
  457.19   15.92  449.43   15.78  472.71   16.19  480.47   16.32  442.78   15.66
  406.21   15.00  458.30   15.94  455.53   15.89  451.65   15.82  465.50   16.06
  490.44   16.49  428.93   15.42  448.88   15.77  447.22   15.74  448.88   15.77
  476.03   16.24  464.95   16.05  426.16   15.37  462.18   16.00  428.93   15.42
  442.78   15.66  429.48   15.43  438.90   15.60  469.94   16.14  443.34   15.67
  453.87   15.86  452.20   15.83  457.19   15.92  427.27   15.39  447.22   15.74
  423.94   15.33  411.19   15.10  421.17   15.28  430.04   15.44  418.95   15.24
  451.09   15.81  432.25   15.48  438.35   15.59  431.70   15.47  431.14   15.46
  438.41   12.73  435.08   12.68  436.56   12.70  448.17   15.82  431.42   15.52
  466.02   16.13  423.61   15.38  423.05   15.37  474.95   16.28  424.17   15.39
  443.14   15.73  425.84   15.42  424.17   15.39  441.47   15.70  421.93   15.35
  421.38   15.34  437.00   15.62  479.42   16.36  445.93   15.78  477.19   16.32
  468.26   16.17  490.58   16.55  500.63   16.72  506.77   16.82  521.84   17.07
  559.23   17.67  538.02   17.33  597.18   18.26  611.69   18.48  702.11   19.80
  769.64   20.73  842.19   21.68  958.84   23.13 1097.25   24.75 1396.40   27.92
 1654.25   30.39 1886.98   32.45 2121.39   34.41 2258.69   35.50 2173.85   34.83
 1953.96   33.02 1609.60   29.97 1249.06   26.40  868.42   22.02  664.71   19.26
  520.16   17.04  459.33   16.01  464.91   16.11  444.82   15.76  458.77   16.00
  447.05   15.80  453.19   15.90  430.86   15.51  449.84   15.84  431.20   12.90
  418.09   12.70  420.40   12.73  436.22   12.97  438.37   16.05  434.26   15.97
  454.83   16.35  457.76   16.40  446.60   16.20  439.55   16.07  441.90   16.11
  454.24   16.34  497.72   17.10  517.70   17.44  510.65   17.32  596.44   18.72
  609.37   18.92  694.58   20.20  742.76   20.89  813.87   21.87  990.16   24.12
 1197.59   26.53 1433.82   29.03 1762.30   32.18 2046.72   34.68 2175.41   35.75
 2187.16   35.85 2070.22   34.88 1819.89   32.70 1415.01   28.84 1105.92   25.49
  790.95   21.56  542.97   17.86  520.64   17.49  453.65   16.33  467.75   16.58
  453.06   16.32  394.30   15.22  407.82   15.48  442.49   16.13  436.61   16.02
  447.19   16.21  409.58   15.51  430.15   15.90  415.45   15.62  423.09   15.77
  453.65   16.33  413.69   15.59  457.18   16.39  456.59   16.38  441.31   16.10
  440.72   16.09  405.46   15.44  452.64   13.40  450.66   13.37  452.64   13.40
  438.76   13.19  439.55   13.21  443.92   13.27  453.70   16.74  464.81   16.94
  429.63   16.29  456.17   16.78  412.35   15.95  424.69   16.19  432.10   16.33
  435.19   16.39  446.91   16.61  465.43   16.95  435.19   16.39  462.35   16.89
  474.07   17.11  464.81   16.94  485.19   17.31  518.52   17.89  550.62   18.44
  619.14   19.55  677.16   20.45  765.43   21.74  872.22   23.20  938.27   24.07
  837.04   22.73  864.81   23.10  814.20   22.42  710.49   20.94  570.37   18.76
  506.17   17.68  467.90   16.99  448.77   16.64  446.30   16.60  454.32   16.75
  443.83   16.55  424.07   16.18  440.74   16.49  444.44   16.56  459.26   16.84
  446.91   16.61  451.85   16.70  425.31   16.20  446.30   16.60  445.06   16.57
  440.12   16.48  409.88   15.91  435.19   16.39  416.05   16.03  452.47   16.71
  450.00   16.67  428.21   13.47  453.20   13.85  465.48   14.04  451.50   13.83
  439.22   13.64  424.82   13.41  430.13   16.60  445.51   16.90  422.44   16.46
  459.62   17.16  437.82   16.75  450.00   16.98  426.92   16.54  421.15   16.43
  438.46   16.76  441.67   16.83  430.13   16.60  400.00   16.01  446.15   16.91
  433.33   16.67  417.95   16.37  425.00   16.51  439.74   16.79  437.18   16.74
  442.95   16.85  445.51   16.90  398.72   15.99  414.10   16.29  417.95   16.37
  444.23   16.87  444.23   16.87  430.77   16.62  428.21   16.57  430.77   16.62
  427.56   16.56  456.41   17.10  446.15   16.91  435.26   16.70  436.54   16.73
  428.85   16.58  401.28   16.04  442.95   16.85  450.00   16.98  450.64   17.00
  442.31   16.84  442.31   16.84  428.85   16.58  426.28   16.53  433.33   16.67
  425.00   16.51  417.95   16.37  416.67   16.34  411.54   16.24  448.72   16.96
  440.38   16.80  429.18   13.31  434.95   13.40  435.78   13.41  420.10   13.17
  413.90   16.06  449.43   16.74  419.51   16.17  418.89   16.16  421.38   16.21
  435.09   16.47  413.28   16.05  407.67   15.94  407.04   15.93  446.94   16.69
  422.63   16.23  410.16   15.99  433.22   16.43  423.87   16.25  430.11   16.37
  410.16   15.99  420.13   16.18  429.48   16.36  412.65   16.04  438.21   16.53
  426.99   16.31  387.72   15.55  428.24   16.34  418.89   16.16  425.12   16.28
  407.04   15.93  449.43   16.74  388.97   15.57  421.38   16.21  421.38   16.21
  443.20   16.62  438.83   16.54  420.13   16.18  425.12   16.28  436.96   16.50
  395.20   15.70  389.59   15.58  421.38   16.21  418.26   16.15  389.59   15.58
  430.73   16.39  437.59   16.52  430.73   16.39  426.99   16.31  415.77   16.10
  407.67   15.94  418.26   16.15  410.16   15.99  433.85   16.44  420.14   13.05
  431.48   13.22  392.59   12.61  422.16   13.08  403.12   12.78  404.11   15.30
  413.37   15.47  429.58   15.77  432.48   15.82  427.27   15.73  422.64   15.64
  420.90   15.61  423.80   15.66  387.32   14.97  393.69   15.10  424.95   15.69
  401.22   15.24  420.90   15.61  419.74   15.59  429.58   15.77  406.43   15.34
  389.64   15.02  423.80   15.66  424.37   15.67  401.22   15.24  416.27   15.52
  411.64   15.44  422.06   15.63  410.48   15.42  396.01   15.14  393.11   15.09
  421.48   15.62  411.64   15.44  401.22   15.24  408.74   15.38  396.01   15.14
  392.53   15.08  402.95   15.27  436.53   15.90  419.16   15.58  404.69   15.31
  424.95   15.69  440.58   15.97  441.16   15.98  424.37   15.67  461.43   16.34
  425.53   15.70  406.43   15.34  426.11   15.71  405.85   15.33  412.79   15.46
  419.16   15.58  390.79   15.04  394.85   15.12  437.11   15.91  408.16   12.62
  411.67   12.67  419.47   12.79  408.16   12.62  407.77   12.61  421.30   15.74
  404.82   15.43  401.88   15.38  393.06   15.21  427.18   15.85  424.24   15.80
  387.76   15.11  400.71   15.36  424.24   15.80  395.41   15.25  404.24   15.42
  441.31   16.11  414.83   15.62  431.89   15.94  430.71   15.92  410.12   15.53
  416.59   15.66  413.65   15.60  409.53   15.52  404.24   15.42  402.47   15.39
  411.30   15.56  407.18   15.48  431.30   15.93  445.43   16.19  429.54   15.90
  431.89   15.94  480.14   16.81  506.62   17.27  544.87   17.91  646.07   19.50
  814.95   21.90  964.99   23.83 1152.69   26.04 1323.92   27.91 1383.94   28.54
 1292.73   27.58 1227.42   26.87  991.47   24.15  738.45   20.84  570.76   18.33
  496.62   17.09  446.01   16.20  438.36   16.06  417.77   15.68  414.83   15.62
  447.78   16.23  401.88   15.38  423.47   12.83  428.90   12.91  423.47   12.83
  406.37   12.56  414.92   12.70  422.81   15.72  409.94   15.48  392.98   15.16
  402.92   15.35  411.70   15.52  416.37   15.60  430.41   15.87  391.23   15.13
  421.05   15.69  383.04   14.97  393.57   15.17  399.42   15.28  437.43   15.99
  432.75   15.91  430.99   15.88  428.65   15.83  416.96   15.62  410.53   15.49
  416.37   15.60  392.98   15.16  411.70   15.52  410.53   15.49  419.30   15.66
  404.68   15.38  407.60   15.44  400.00   15.29  413.45   15.55  407.02   15.43
  421.64   15.70  413.45   15.55  433.33   15.92  384.21   14.99  398.83   15.27
  428.65   15.83  444.44   16.12  431.58   15.89  421.05   15.69  474.85   16.66
  499.42   17.09  505.85   17.20  537.43   17.73  605.26   18.81  725.15   20.59
  735.09   20.73  797.66   21.60  871.93   22.58 1012.28   24.33 1226.32   26.78
 1562.57   30.23 1867.29   27.02 2145.61   28.96 2347.31   30.29 2292.19   29.93
 2021.69   28.11 1639.01   25.31 1386.74   28.37  976.35   23.81  678.57   19.85
  551.44   17.89  464.37   16.42  441.74   16.01  426.64   15.74  414.45   15.51
  405.17   15.34  423.16   15.67  434.77   15.89  420.84   15.63  422.00   15.65
  423.74   15.68  423.16   15.67  441.16   16.00  453.34   16.22  482.37   16.73
  459.73   16.34  506.17   17.14  602.53   18.70  661.73   19.60  888.11   22.71
 1262.52   27.07 1975.91   33.87 3045.13   42.04 4798.72   52.78 7360.91   65.37
10134.38   76.7013136.55   87.3215267.45   94.1415727.18   95.5514455.96   91.60
11643.01   82.21 8433.03   69.96 5345.52   55.70 2952.26   41.40 1549.27   29.99
  897.98   22.83  616.46   18.92  520.68   17.38  478.89   16.67  481.21   16.71
  502.10   17.07  507.33   17.16  553.77   17.93  640.84   19.29  741.20   17.49
  897.70   19.25 1230.10   22.54 1532.78   25.16 1868.07   27.77 2068.34   29.22
 2063.66   36.52 1920.83   35.23 1648.09   32.64 1292.62   28.90  917.76   24.35
  688.32   21.09  561.64   19.05  501.53   18.00  452.42   17.10  434.97   16.77
  419.45   16.47  473.10   17.49  437.55   16.82  423.33   16.54  439.49   16.85
  378.09   15.63  398.13   16.04  392.31   15.92  417.51   16.43  404.59   16.17
  409.76   16.27  445.31   16.96  467.28   17.38  450.48   17.06  458.23   17.21
  532.56   18.55  522.86   18.38  566.81   19.14  573.28   19.25  535.79   18.61
  534.50   18.59  526.74   18.45  549.36   18.84  521.57   18.36  451.12   17.08
  447.25   17.00  428.50   16.64  414.28   16.36  398.77   16.05  403.30   16.14
  424.62   16.57  415.58   16.39  407.82   16.24  387.78   15.83  387.78   15.83
  392.96   15.94  404.59   16.17  406.53   16.21  390.37   15.88  393.88   12.85
  387.60   12.74  410.64   13.12  420.70   13.28  391.37   12.81  395.25   16.03
  385.50   15.83  400.46   16.13  417.36   16.47  400.46   16.13  403.06   16.19
  407.61   16.28  427.11   16.66  402.41   16.17  403.71   16.20  384.20   15.80
  383.55   15.79  369.25   15.49  393.95   16.00  405.01   16.23  401.76   16.16
  421.26   16.55  380.95   15.74  401.76   16.16  385.50   15.83  395.90   16.04
  388.75   15.90  385.50   15.83  403.71   16.20  381.60   15.75  381.60   15.75
  380.30   15.72  413.46   16.39  390.05   15.92  397.20   16.07  416.06   16.45
  399.80   16.12  380.30   15.72  403.71   16.20  412.81   16.38  374.45   15.60
  362.75   15.36  395.90   16.04  349.10   15.06  386.80   15.86  377.05   15.66
  421.91   16.56  392.65   15.98  399.15   16.11  399.15   16.11  394.60   16.02
  392.65   15.98  377.05   15.66  393.95   16.00  398.16   13.04  388.76   12.89
  375.52   12.67  398.59   13.05  403.23   15.67  403.23   15.67  407.49   15.75
  358.76   14.78  392.87   15.47  372.77   15.07  388.61   15.39  416.02   15.92
  403.84   15.68  391.05   15.43  412.36   15.85  416.63   15.93  383.74   15.29
  410.54   15.81  392.87   15.47  420.89   16.01  389.22   15.40  395.92   15.53
  370.95   15.03  387.39   15.36  365.46   14.92  368.51   14.98  356.33   14.73
  399.57   15.60  397.75   15.57  412.97   15.86  402.01   15.65  375.82   15.13
  394.09   15.49  405.66   15.72  386.17   15.34  383.74   15.29  398.96   15.59
  384.96   15.31  413.58   15.87  444.65   16.46  473.28   16.98  603.02   19.17
  645.04   19.82  702.91   20.69  835.69   22.56  861.28   22.90  853.97   22.81
  751.03   21.39  656.62   20.00  604.23   19.18  490.94   17.29  437.34   16.32
  409.32   15.79  396.53   15.54  393.24   12.54  388.04   12.46  378.84   12.31
  392.84   12.54  373.64   12.23  376.99   15.07  408.91   15.69  390.24   15.33
  386.03   15.25  426.38   16.02  434.21   16.17  498.64   17.33  596.81   18.96
  816.62   22.18 1022.58   24.82 1402.59   29.06 1804.28   32.96 2153.57   36.01
 2293.89   37.17 2290.27   37.14 1996.99   34.68 1639.87   31.43 1218.91   27.09
  960.55   24.05  672.09   20.12  511.29   17.55  417.95   15.87  392.05   15.37
  365.55   14.84  390.85   15.34  402.89   15.58  394.46   15.41  373.38   15.00
  390.85   15.34  373.98   15.01  380.01   15.13  392.05   15.37  364.95   14.83
  378.20   15.09  383.02   15.19  362.54   14.78  384.82   15.22  375.79   15.04
  367.36   14.87  363.14   14.79  366.76   14.86  370.37   14.93  370.37   14.93
  386.03   15.25  359.53   14.71  386.03   15.25  381.21   15.15  372.18   14.97
  377.60   15.08  371.87   12.35  357.11   12.10  373.51   12.38  389.50   12.64
  382.53   12.52  380.08   15.24  395.36   15.54  348.30   14.59  380.08   15.24
  357.47   14.78  364.80   14.93  391.69   15.47  394.74   15.53  370.91   15.05
  411.85   15.86  468.07   16.91  513.90   17.72  520.62   17.84  571.95   18.69
  650.78   19.94  738.16   21.24  887.26   23.28 1241.67   27.55 1779.41   32.97
 2483.35   38.95 3023.53   42.98 3714.02   47.64 3962.11   49.20 3902.23   48.83
 3399.94   45.58 2724.11   40.80 1927.89   34.32 1390.77   29.15  930.03   23.84
  640.39   19.78  519.40   17.82  441.80   16.43  435.69   16.32  403.30   15.70
  399.63   15.63  378.86   15.22  385.58   15.35  371.52   15.07  366.03   14.96
  395.36   15.54  395.97   15.56  337.31   14.36  385.58   15.35  359.30   14.82
  388.02   15.40  391.08   15.46  362.97   14.89  380.08   15.24  392.30   15.48
  356.21   12.09  382.48   12.53  357.44   12.11  385.35   12.58  375.09   12.41
  384.48   15.61  378.78   15.49  400.95   15.94  399.05   15.90  421.85   16.35
  495.33   17.71  527.63   18.28  690.42   20.91  862.71   23.38 1174.35   27.27
 1480.29   30.62 1764.05   33.43 1814.09   33.90 1814.09   33.90 1588.60   31.72
 1270.63   28.37 1005.86   25.24  812.03   22.68  584.64   19.24  518.76   18.13
  456.06   17.00  392.08   15.76  419.32   16.30  381.95   15.55  389.55   15.71
  366.11   15.23  392.08   15.76  371.81   15.35  383.85   15.59  397.15   15.86
  383.21   15.58  400.32   15.92  428.82   16.48  437.05   16.64  484.56   17.52
  540.93   18.51  544.73   18.58  553.60   18.73  514.33   18.05  539.67   18.49
  455.42   16.98  457.32   17.02  416.15   16.24  379.41   15.50  375.61   15.42
  378.15   15.48  368.01   15.27  379.41   15.50  375.61   15.42  376.88   12.76
  398.92   13.13  340.57   12.13  362.61   12.52  363.05   12.53  356.29   15.23
  375.83   15.65  352.39   15.15  404.49   16.23  392.12   15.98  362.81   15.37
  356.29   15.23  384.30   15.82  347.17   15.04  366.72   15.46  373.88   15.61
  351.73   15.14  364.11   15.40  387.56   15.89  359.55   15.30  396.03   16.06
  385.60   15.85  355.64   15.22  358.90   15.29  378.44   15.70  371.93   15.56
  386.91   15.88  360.20   15.32  358.90   15.29  360.20   15.32  356.95   15.25
  363.46   15.39  390.16   15.94  371.28   15.55  376.49   15.66  389.51   15.93
  384.95   15.83  406.45   16.27  394.72   16.03  414.26   16.43  470.93   17.51
  495.68   17.97  527.60   18.54  567.99   19.23  626.61   20.20  650.06   20.58
  616.19   20.03  586.22   19.54  532.81   18.63  510.67   18.24  407.10   16.28
  426.64   16.67  420.13   16.54  389.51   15.93  392.96   12.95  361.81   12.42
  367.79   12.53  367.36   12.52  379.73   12.73  349.85   15.06  401.04   16.12
  351.15   15.08  350.50   15.07  395.21   16.00  386.14   15.82  386.78   15.83
  421.12   16.52  398.45   16.07  410.11   16.30  380.30   15.70  390.67   15.91
  385.49   15.80  397.15   16.04  406.87   16.24  373.83   15.56  383.54   15.76
  389.37   15.88  380.30   15.70  398.45   16.07  406.22   16.22  413.35   16.36
  475.54   17.55  452.87   17.13  550.70   18.89  578.56   19.36  698.41   21.27
  752.83   22.08  754.13   22.10  808.55   22.89  723.68   21.65  681.57   21.01
  636.22   20.30  570.13   19.22  548.75   18.86  516.36   18.29  489.80   17.81
  472.95   17.50  495.63   17.92  483.97   17.71  463.88   17.34  448.33   17.04
  478.13   17.60  405.57   16.21  441.85   16.92  458.70   17.24  502.11   18.04
  568.19   19.19  683.51   21.04  819.17   18.47  885.00   19.20  992.50   20.34
 1023.75   20.65 1037.50   20.79 1209.61   26.95 1407.21   29.07 1784.98   32.74
 2285.89   37.05 2894.89   41.70 3497.30   45.83 3867.87   48.20 3981.38   48.90
 3654.05   46.85 3136.34   43.40 2412.61   38.07 1856.46   33.39 1282.28   27.75
  951.35   23.90  705.11   20.58  557.36   18.30  433.03   16.13  381.98   15.15
  383.78   15.18  374.77   15.00  382.58   15.16  362.16   14.75  362.16   14.75
  380.78   15.12  353.75   14.58  368.17   14.87  379.58   15.10  377.78   15.06
  372.97   14.97  357.36   14.65  403.60   15.57  378.38   15.07  350.75   14.51
  397.00   15.44  362.76   14.76  380.78   15.12  363.96   14.79  401.80   15.53
  414.41   15.78  449.25   16.43  481.08   17.00  542.34   18.05  598.80   18.96
  723.72   20.85  825.83   22.27  797.00   21.88  768.77   21.49  703.90   20.56
  664.24   16.40  570.68   15.20  517.62   14.48  434.99   13.27  407.45   12.85
  385.18   12.49  387.83   15.28  392.05   15.37  398.68   15.49  361.34   14.75
  351.10   14.54  360.13   14.73  348.09   14.48  377.60   15.08  360.13   14.73
  383.62   15.20  382.41   15.18  401.69   15.55  393.26   15.39  418.55   15.88
  416.14   15.83  470.94   16.84  545.02   18.12  646.19   19.73  882.87   23.06
 1085.82   25.57 1256.85   27.51 1453.18   29.58 1639.27   31.42 1585.67   30.90
 1465.82   29.71 1329.72   28.30 1053.90   25.19  883.47   23.07  697.98   20.50
  576.93   18.64  455.28   16.56  456.49   16.58  410.72   15.73  360.13   14.73
  381.81   15.16  348.69   14.49  345.68   14.43  386.63   15.26  354.71   14.62
  378.20   15.09  363.14   14.79  361.34   14.75  354.11   14.60  342.07   14.35
  356.52   14.65  367.96   14.89  354.71   14.62  351.10   14.54  347.47   11.89
  358.46   12.08  365.37   12.19  349.51   11.93  348.69   11.91  374.73   12.35
  404.68   15.90  365.34   15.10  384.70   15.50  414.68   16.09  434.04   16.46
  430.29   16.39  458.39   16.92  408.43   15.97  393.44   15.68  405.31   15.91
  355.97   14.91  370.34   15.21  379.70   15.40  370.96   15.22  359.09   14.98
  347.23   14.73  340.36   14.58  343.48   14.65  367.21   15.14  390.94   15.63
  354.72   14.88  387.82   15.56  341.61   14.61  354.72   14.88  363.47   15.07
  352.85   14.84  354.72   14.88  337.24   14.51  378.45   15.37  358.47   14.96
  362.84   15.05  354.72   14.88  370.34   15.21  352.22   14.83  337.24   14.51
  356.60   14.92  359.72   14.99  411.55   16.03  394.07   15.69  387.82   15.56
  375.33   15.31  430.91   16.40  444.03   16.65  430.29   16.39  475.88   17.24
  508.35   17.82  537.70   18.32  687.59   20.72  719.62   17.49  844.23   18.95
  968.85   20.30 1235.09   22.92 1551.94   25.69 2049.44   36.39 2496.04   40.16
 3161.09   45.20 3471.97   47.37 3740.83   49.17 3678.14   48.76 3411.86   46.96
 2878.66   43.13 2268.54   38.29 1750.85   33.64 1405.72   30.14  977.86   25.14
  795.61   22.68  590.08   19.53  489.26   17.78  445.31   16.96  396.83   16.01
  385.85   15.79  388.43   15.84  365.16   15.36  348.36   15.00  384.55   15.77
  360.64   15.27  371.63   15.50  372.92   15.52  372.92   15.52  352.24   15.09
  371.63   15.50  374.21   15.55  355.47   15.16  366.46   15.39  377.44   15.62
  372.27   15.51  361.93   15.29  365.16   15.36  365.81   15.38  338.67   14.79
  361.29   15.28  387.78   15.83  381.32   15.70  409.76   16.27  359.35   15.24
  376.80   15.61  370.98   15.48  354.18   15.13  372.92   15.52  369.04   15.44
  365.16   15.36  351.59   15.07  377.30   13.01  375.50   12.98  389.41   13.22
  357.56   12.67  397.04   13.35  406.50   16.85  469.36   18.11  489.61   18.49
  554.57   19.68  643.27   21.20  792.74   23.53 1023.22   26.73 1352.19   30.73
 1512.83   32.51 1820.15   35.65 2003.14   37.40 2049.94   37.84 1955.65   36.96
 1788.72   35.35 1531.69   32.71 1277.46   29.87 1007.16   26.52  893.31   24.98
  796.93   23.59  691.46   21.98  597.87   20.43  584.60   20.21  482.63   18.36
  465.17   18.02  429.54   17.32  446.31   17.66  409.29   16.91  395.32   16.62
  404.40   16.81  354.11   15.73  389.03   16.48  350.62   15.65  368.08   16.03
  356.21   15.77  374.37   16.17  357.60   15.80  379.26   16.28  396.02   16.63
  359.00   15.83  363.19   15.93  360.40   15.87  352.72   15.70  360.40   15.87
  361.10   15.88  354.11   15.73  403.00   16.78  392.53   16.56  402.30   16.76
  397.42   16.66  449.80   17.72  449.87   14.07  500.88   14.84  525.95   15.21
  581.35   15.99  641.73   20.52  786.09   22.71  929.79   24.70 1155.51   27.54
 1530.18   31.69 1849.08   34.83 2204.07   38.03 2490.81   40.43 2635.17   41.58
 2602.36   41.32 2402.89   39.71 2070.21   36.86 1769.03   34.07 1437.66   30.71
 1107.61   26.96  860.24   23.76  751.31   22.20  629.92   20.33  566.27   19.28
  521.65   18.50  546.59   18.94  580.05   19.51  701.44   21.45  891.73   24.19
 1169.29   27.70 1465.88   31.01 1852.36   34.86 2402.89   39.71 2986.88   44.27
 3442.26   47.53 3785.43   49.84 3879.92   50.46 3692.26   49.22 3336.61   46.79
 2746.72   42.45 2318.90   39.01 1814.96   34.51 1500.00   31.37 1301.84   29.23
 1107.61   26.96 1106.96   26.95 1070.87   26.51 1061.68   26.39 1053.81   26.30
 1017.72   25.84 1028.22   25.97  972.44   25.26  818.90   23.18  753.28   22.23
  662.37   16.87  591.45   15.94  526.97   15.05  476.68   14.31  423.81   13.50
  399.45   15.58  432.89   16.22  414.04   15.87  381.82   15.24  423.77   16.05
  417.69   15.94  494.91   17.35  571.52   18.64  588.54   18.92  643.87   19.79
  741.15   21.23  794.04   21.97  850.59   22.74  835.99   22.55  841.47   22.62
  772.76   21.68  728.38   21.04  640.22   19.73  528.35   17.92  497.95   17.40
  451.74   16.57  414.04   15.87  389.72   15.39  373.31   15.07  350.21   14.59
  349.60   14.58  361.76   14.83  369.66   14.99  331.97   14.21  365.41   14.91
  356.29   14.72  344.13   14.46  369.05   14.98  365.41   14.91  347.17   14.53
  348.99   14.57  356.29   14.72  360.54   14.81  369.05   14.98  343.52   14.45
  354.46   14.68  345.34   14.49  355.68   14.71  358.11   14.76  341.69   14.41
  387.90   15.36  333.18   14.23  344.13   14.46  344.13   14.46  355.69   12.00
  364.19   12.14  349.62   11.89  362.57   12.11  355.69   12.00  384.02   12.47
  394.11   15.55  337.02   14.38  356.05   14.78  351.75   14.69  379.37   15.26
  351.75   14.69  382.44   15.32  359.12   14.85  376.30   15.20  340.70   14.46
  369.55   15.06  358.50   14.83  386.74   15.41  375.08   15.17  372.01   15.11
  381.83   15.31  415.59   15.97  432.17   16.29  499.69   17.51  523.63   17.93
  573.97   18.77  706.57   20.83  753.22   21.50  822.59   22.47  899.94   23.50
  956.41   24.23  954.57   24.21  943.52   24.07  861.26   22.99  763.66   21.65
  670.96   20.29  619.40   19.50  575.20   18.79  519.95   17.87  473.30   17.05
  430.94   16.26  461.63   16.83  444.44   16.52  432.17   16.29  499.08   17.50
  480.05   17.17  483.73   17.23  545.73   18.30  532.23   18.08  553.10   18.43
  506.45   17.63  484.35   17.24  446.90   16.56  408.23   15.83  438.00   13.28
  421.10   13.02  388.49   12.51  368.36   12.18  383.59   15.10  357.42   14.58
  349.69   14.42  362.18   14.68  338.39   14.19  351.47   14.46  357.42   14.58
  344.34   14.31  352.66   14.48  337.20   14.16  337.79   14.17  344.93   14.32
  328.28   13.97  316.98   13.73  352.66   14.48  353.26   14.49  328.28   13.97
  315.19   13.69  358.61   14.60  343.74   14.30  330.66   14.02  349.69   14.42
  331.85   14.05  347.31   14.37  351.47   14.46  329.47   14.00  345.52   14.33
  351.47   14.46  336.60   14.15  346.12   14.35  333.63   14.09  356.82   14.57
  334.23   14.10  358.01   14.59  340.77   14.24  350.28   14.43  340.77   14.24
  340.77   14.24  347.31   14.37  347.90   14.38  355.04   14.53  363.96   14.71
  368.72   14.81  341.96   14.26  381.80   15.07  382.40   15.08  381.80   15.07
  394.89   15.32  437.11   16.12  494.20   17.14  538.13   14.78  618.13   15.84
  642.10   16.15  713.98   17.03  772.12   21.73  871.77   23.09  975.09   24.42
 1089.41   25.81 1225.74   27.37 1324.16   28.45 1388.97   29.14 1437.87   29.65
 1321.72   28.43 1266.70   27.83 1152.38   26.54 1006.27   24.80  874.22   23.12
  726.88   21.08  637.63   19.74  563.66   18.56  471.34   16.98  427.94   16.17
  414.49   15.92  379.03   15.22  370.47   15.05  359.47   14.82  371.69   15.07
  369.25   15.02  304.45   13.64  349.69   14.62  352.74   14.68  344.18   14.51
  328.29   14.17  383.92   15.32  380.25   15.25  361.91   14.87  364.97   14.94
  376.59   15.17  421.21   16.05  408.99   15.81  437.72   16.36  486.02   17.24
  528.81   17.98  536.76   18.11  525.75   17.93  525.14   17.92  538.59   18.15
  550.21   18.34  533.70   18.06  475.01   17.04  432.83   16.27  441.39   16.43
  420.60   16.04  406.61   12.84  388.37   12.55  376.20   12.35  393.64   12.63
  414.31   12.96  398.91   12.72  407.63   15.90  398.95   15.73  395.84   15.67
  443.62   16.59  500.08   17.61  563.36   18.70  568.95   18.79  605.55   19.38
  618.58   19.59  635.95   19.86  608.66   19.43  666.98   20.34  599.35   19.28
  583.22   19.02  526.76   18.08  480.84   17.27  465.33   16.99  437.41   16.47
  373.51   15.22  362.96   15.01  388.40   15.52  359.86   14.94  372.89   15.21
  367.92   15.11  338.14   14.48  331.94   14.35  371.03   15.17  351.17   14.76
  349.93   14.73  357.38   14.89  357.38   14.89  325.11   14.20  346.21   14.66
  351.17   14.76  350.55   14.75  346.83   14.67  328.21   14.27  361.72   14.98
  370.40   15.16  368.54   15.12  358.62   14.92  390.88   15.57  395.22   15.66
  397.70   15.71  428.73   16.31  474.02   17.15  526.14   18.07  515.59   17.89
  522.18   14.63  612.36   15.84  655.40   16.39  682.45   16.72  709.91   17.06
  788.20   17.97  877.03   22.99  838.46   22.48  889.69   23.16  918.02   23.52
  875.23   22.97  862.57   22.80  781.80   21.71  709.46   20.68  615.43   19.26
  620.25   19.34  551.54   18.23  557.56   18.33  521.40   17.73  507.53   17.49
  498.49   17.33  509.34   17.52  581.07   18.72  619.05   19.32  656.42   19.89
  705.85   20.63  732.37   21.01  798.07   21.93  850.51   22.64  855.33   22.71
  802.89   22.00  810.13   22.10  740.81   21.13  669.68   20.09  645.57   19.73
  575.05   18.62  536.47   17.98  542.50   18.08  440.63   16.30  453.89   16.54
  472.57   16.88  438.22   16.25  438.82   16.26  427.97   16.06  472.57   16.88
  455.70   16.57  437.01   16.23  443.04   16.34  458.11   16.62  442.44   16.33
  442.44   16.33  443.64   16.35  457.50   16.61  469.00   13.63  502.28   14.11
  545.85   14.70  604.08   15.47  695.19   16.59  736.78   17.08  886.33   22.88
 1077.06   25.22 1217.01   26.81 1377.03   28.52 1584.88   30.59 1763.80   32.27
 1847.06   33.03 1903.16   33.52 1885.44   33.37 1727.78   31.94 1629.76   31.02
 1497.49   29.74 1366.99   28.41 1186.30   26.47 1005.02   24.36  781.22   21.48
  757.60   21.15  636.55   19.39  550.34   18.03  470.62   16.67  420.43   15.76
  393.27   15.24  373.78   14.86  356.66   14.51  363.15   14.64  387.95   15.14
  352.52   14.43  357.25   14.52  310.60   13.54  322.41   13.80  315.32   13.65
  367.88   14.74  336.58   14.10  348.98   14.36  326.54   13.89  343.08   14.23
  321.23   13.77  334.81   14.06  337.76   14.12  346.03   14.29  311.19   13.56
  325.36   13.86  363.74   14.66  350.75   14.39  325.95   13.87  372.60   14.83
  362.56   14.63  357.25   14.52  361.97   14.62  351.96   11.78  321.61   11.26
  314.51   11.13  330.67   11.42  322.79   11.28  329.97   13.89  324.70   13.78
  341.09   14.13  359.22   14.50  325.29   13.80  332.31   13.94  344.01   14.19
  335.23   14.00  335.23   14.00  352.79   14.37  362.15   14.56  345.77   14.22
  344.60   14.20  344.01   14.19  337.57   14.05  344.01   14.19  360.39   14.52
  356.88   14.45  372.09   14.75  359.22   14.50  369.75   14.71  348.11   14.27
  392.57   15.15  384.38   15.00  412.46   15.53  458.10   16.37  461.61   16.43
  489.69   16.93  549.36   17.93  596.17   18.68  671.64   19.82  751.21   20.96
  823.75   21.95  993.42   24.11 1157.23   26.02 1316.95   27.76 1482.52   29.45
 1556.82   30.18 1691.97   31.46 1780.90   32.28 1738.77   31.89 1656.87   31.13
 1644.00   31.01 1557.99   30.19 1415.83   28.78 1278.34   27.35 1084.10   25.18
  976.45   23.90  847.65   18.36  742.24   17.18  696.50   16.64  601.03   15.46
  588.31   15.30  556.87   18.38  554.44   18.34  537.46   18.06  579.31   18.75
  572.04   18.63  602.37   19.12  680.62   20.32  680.01   20.31  632.70   19.59
  689.11   20.45  676.37   20.26  636.34   19.65  643.01   19.75  583.56   18.81
  533.21   17.98  552.62   18.31  464.66   16.79  445.86   16.45  429.48   16.14
  393.08   15.44  367.00   14.92  397.94   15.54  386.41   15.31  371.25   15.01
  353.65   14.65  330.60   14.16  343.34   14.43  347.59   14.52  327.57   14.10
  324.54   14.03  345.77   14.48  353.65   14.65  349.41   14.56  345.16   14.47
  334.85   14.25  374.89   15.08  350.02   14.57  361.54   14.81  367.61   14.93
  368.82   14.96  364.57   14.87  384.59   15.27  404.61   15.67  426.45   16.08
  409.46   15.76  445.25   16.43  477.40   17.02  545.34   18.19  569.61   18.59
  639.37   19.69  699.04   16.77  792.36   17.85  906.59   19.10 1041.33   20.47
 1141.48   21.43 1296.19   28.09 1380.82   28.99 1391.78   29.11 1431.35   29.52
 1375.34   28.94 1399.09   29.19 1277.32   27.89 1228.01   27.34 1100.15   25.88
 1019.18   24.91  940.03   23.92  773.82   21.71  734.25   21.14  619.79   19.43
  548.55   18.27  526.64   17.91  437.75   16.33  451.75   16.58  459.06   16.72
  417.05   15.93  367.73   14.96  379.30   15.20  343.99   14.47  342.77   14.45
  343.38   14.46  339.12   14.37  403.65   15.68  381.13   15.23  363.47   14.88
  382.34   15.26  409.74   15.79  381.13   15.23  423.14   16.05  460.27   16.74
  519.33   17.78  502.89   17.50  524.81   17.88  603.35   19.17  596.65   19.06
  673.97   20.26  700.76   20.66  668.49   20.17  662.40   20.08  681.89   20.38
  677.02   20.30  694.06   20.56  631.35   19.61  653.88   19.95  675.19   20.27
  678.56   16.40  672.22   16.32  694.02   16.59  716.61   16.85  762.40   21.06
  845.05   22.18  931.76   23.29 1018.48   24.35 1016.73   24.33 1142.44   25.79
 1245.45   26.92 1267.57   27.16 1262.33   27.10 1302.49   27.53 1258.26   27.06
 1286.19   27.36 1148.84   25.86 1092.97   25.22 1024.30   24.42  994.62   24.06
  881.71   22.65  802.56   21.61  761.82   21.06  685.00   19.97  640.77   19.31
  562.20   18.09  511.57   17.25  474.32   16.61  474.90   16.62  426.60   15.76
  429.51   15.81  385.28   14.97  363.16   14.54  373.05   14.73  335.22   13.97
  348.03   14.23  356.18   14.40  355.01   14.37  368.40   14.64  368.40   14.64
  332.31   13.91  371.89   14.71  347.45   14.22  369.56   14.67  381.78   14.91
  377.13   14.81  352.10   14.31  380.62   14.88  396.92   15.20  440.56   16.01
  428.92   15.80  448.71   16.16  451.04   16.20  487.12   16.84  515.15   14.33
  557.02   14.90  540.67   14.68  585.73   15.28  569.78   15.07  569.97   18.47
  567.58   18.43  566.38   18.41  556.20   18.25  553.81   18.21  534.05   17.88
  522.08   17.68  503.52   17.36  514.89   17.56  512.50   17.52  508.31   17.45
  557.40   18.27  583.74   18.69  622.66   19.31  676.55   20.13  669.36   20.02
  751.98   21.22  808.86   22.01  901.06   23.23 1027.39   24.80 1141.75   26.15
 1317.17   28.08 1476.43   29.73 1704.54   31.95 2016.46   34.75 2230.80   36.55
 2433.17   38.17 2627.15   39.66 2733.12   40.45 2836.70   41.21 2796.59   40.92
 2939.08   41.95 2751.68   40.59 2775.63   40.77 2587.64   39.36 2378.69   37.74
 2201.47   36.30 1935.04   34.04 1725.49   32.14 1434.52   29.31 1313.58   28.04
 1126.18   25.97  986.68   24.31  841.19   22.44  738.81   21.03  649.60   19.72
  599.31   18.94  538.84   17.96  521.48   17.67  448.14   13.57  459.64   13.74
  403.37   12.87  397.62   12.78  385.71   12.59  367.44   15.38  414.41   16.33
  406.69   16.18  421.49   16.47  434.36   16.72  424.07   16.52  463.32   17.27
  480.05   17.58  503.22   18.00  534.11   18.54  496.78   17.88  538.61   18.62
  574.00   19.22  575.93   19.25  578.51   19.29  551.48   18.84  576.58   19.26
  563.71   19.05  526.38   18.40  514.16   18.19  445.30   16.93  500.64   17.95
  447.88   16.98  452.38   17.06  404.76   16.14  436.29   16.76  423.42   16.51
  395.11   15.95  391.25   15.87  351.35   15.04  384.81   15.74  346.85   14.94
  344.92   14.90  339.77   14.79  359.07   15.20  330.12   14.57  350.71   15.02
  395.75   15.96  373.87   15.51  367.44   15.38  391.89   15.88  376.45   15.56
  389.32   15.83  421.49   16.47  408.62   16.22  391.25   15.87  416.99   16.38
  427.93   16.59  435.32   13.43  455.22   13.74  481.34   14.13  537.31   14.93
  560.53   15.24  571.31   15.39  580.06   18.91  596.09   19.17  645.40   19.95
  649.71   20.01  686.08   20.57  662.04   20.20  667.59   20.29  647.87   19.98
  635.54   19.79  637.39   19.82  606.56   19.34  587.46   19.03  571.43   18.77
  567.73   18.71  564.65   18.66  553.55   18.47  538.76   18.22  593.62   19.13
  583.76   18.97  612.11   19.42  625.67   19.64  653.41   20.07  667.59   20.29
  745.88   21.44  797.04   22.17  888.89   23.41  935.74   24.02 1115.12   26.22
 1195.25   27.14 1250.73   27.77 1407.92   29.46 1532.44   30.73 1619.97   31.60
 1627.99   31.68 1685.93   32.24 1702.57   32.40 1595.93   31.37 1633.53   31.73
 1605.18   31.46 1556.48   30.98 1498.54   30.39 1355.52   28.91 1310.53   28.42
 1195.25   27.14 1109.57   26.15  973.96   24.50  908.00   23.66  851.29   22.91
  800.74   22.22  725.19   17.08  680.54   16.54  655.61   16.24  603.72   15.58
  551.43   14.89  566.78   18.14  527.87   17.51  513.94   17.28  496.52   16.98
  458.19   16.31  492.45   16.91  512.20   17.25  523.23   17.43  560.39   18.04
  539.49   17.70  578.40   18.33  606.85   18.77  681.77   19.90  721.25   20.47
  731.13   20.61  834.49   22.01  853.08   22.26  877.47   22.57  918.12   23.09
  968.06   23.71 1009.29   24.21 1005.81   24.17  954.70   23.55  977.93   23.83
  958.19   23.59  966.32   23.69  912.31   23.02  906.50   22.94  831.01   21.97
  804.88   21.62  738.68   20.71  671.89   19.75  681.77   19.90  601.05   18.68
  549.36   17.86  503.48   17.10  533.10   17.59  504.07   17.11  470.96   16.54
  424.51   15.70  405.92   15.35  374.56   14.75  373.98   14.74  348.43   14.22
  342.62   14.11  373.98   14.74  351.34   14.28  349.59   14.25  371.66   14.69
  314.16   11.00  364.27   11.85  341.91   11.48  333.43   11.34  343.84   14.07
  349.03   14.18  378.40   14.76  355.94   14.32  408.93   15.35  378.98   14.77
  382.43   14.84  406.62   15.30  402.02   15.22  420.45   15.56  429.09   15.72
  446.36   16.03  513.75   17.20  447.52   16.05  547.16   17.75  575.95   18.21
  568.47   18.09  627.79   19.02  713.03   20.27  702.66   20.12  782.15   21.22
  848.38   22.10  915.77   22.97  976.24   23.71 1017.13   24.20 1033.84   24.40
 1119.08   25.39 1120.81   25.41 1136.93   25.59 1120.81   25.41 1161.12   25.86
 1166.88   25.92 1111.02   25.30 1055.15   24.65 1025.77   24.31 1001.01   24.01
  936.50   23.22  857.60   22.22  813.25   21.64  753.92   20.84  694.02   19.99
  651.98   19.38  624.91   18.97  601.30   18.61  549.46   17.79  547.73   17.76
  524.69   17.38  488.41   16.77  519.51   17.30  473.67   13.87  487.06   14.06
  493.56   14.15  499.64   14.24  513.44   14.44  522.78   14.57  547.59   18.50
  583.22   19.09  582.59   19.08  688.23   20.74  725.11   21.29  713.86   21.12
  766.37   21.89  812.00   22.53  893.26   23.63  951.40   24.39  987.03   24.84
 1030.16   25.38 1027.66   25.35 1034.54   25.43 1057.04   25.71 1132.05   26.60
 1109.55   26.34 1112.05   26.37 1102.67   26.25 1083.92   26.03 1094.55   26.16
 1031.41   25.39  961.40   24.51  995.78   24.95  924.52   24.04  884.51   23.51
  918.27   23.96  840.13   22.92  903.89   23.77  854.51   23.11  849.51   23.04
  835.13   22.85  893.26   23.63  922.02   24.01  923.89   24.03 1009.53   25.12
 1045.79   25.57 1077.67   25.95 1092.67   26.13 1177.06   27.13 1265.82   28.13
 1198.31   27.37 1313.33   28.65 1293.95   28.44 1325.21   28.78 1288.33   28.38
 1283.33   28.32 1276.45   28.25 1207.06   27.47 1176.43   27.12 1096.42   26.18
 1062.67   25.77  996.41   24.96  944.52   24.30  863.23   34.45  817.87   33.53
  712.03   31.28  644.67   29.77  580.07   28.24  604.81   28.83  549.83   27.49
  498.97   26.19  424.74   24.16  468.73   25.38  446.74   24.78  476.98   25.61
  409.62   23.73  404.12   23.57  386.25   23.04  378.01   22.79  354.64   22.08
  395.88   23.33  394.50   23.29  386.25   23.04  372.51   22.63  362.89   22.33
  389.00   23.12  402.75   23.53  389.00   23.12  446.74   24.78  453.61   24.97
  430.24   24.32  437.11   24.51  435.74   24.47  457.73   25.08  476.98   25.61
  544.33   27.35  493.47   26.04  538.83   27.22  508.59   26.44  500.34   26.23
  541.58   27.28  534.71   27.11  538.83   27.22  508.59   26.44  525.09   26.87
  529.21   26.97  548.45   27.46  560.82   27.76  540.21   27.25  570.45   28.00
  522.34   26.80  450.86   24.89  472.85   25.49  504.47   26.33  478.35   25.64
  442.61   24.67                                                                